2016-03-07,09:25:00,4.02,4.02,4.02,4.02,40,0
2016-03-07,10:10:00,4.02,4.02,4.02,4.02,20,0
2016-03-07,11:30:00,4.02,4.1,4.02,4.1,2500,0
2016-03-07,14:30:00,4.15,4.15,4.15,4.15,20,0
2016-03-08,09:30:00,4.06,4.06,4.06,4.06,150,0
2016-03-09,09:10:00,4.04,4.04,4.04,4.04,90,0
2016-03-10,14:00:00,4.03,4.03,4.03,4.03,200,0
2016-03-10,15:55:00,4.03,4.03,4.03,4.03,50,0
2016-03-11,09:05:00,4.03,4.03,4.03,4.03,50,0
2016-03-14,09:05:00,4.02,4.02,4.02,4.02,100,0
2016-03-14,10:20:00,4.02,4.02,4.02,4.02,94,0
2016-03-14,16:20:00,4,4,4,4,25,0
2016-03-15,09:05:00,3.99,3.99,3.99,3.99,75,0
2016-03-15,09:20:00,3.99,3.99,3.99,3.99,25,0
2016-03-16,09:05:00,3.97,3.97,3.97,3.97,50,0
2016-03-16,16:00:00,3.97,3.97,3.97,3.97,42,0
2016-03-16,16:50:00,3.97,3.97,3.97,3.97,72,0
2016-03-17,09:15:00,3.97,3.97,3.97,3.97,100,0
2016-03-17,10:00:00,3.95,3.97,3.95,3.97,400,0
2016-03-17,15:55:00,3.96,3.96,3.96,3.96,30,0
2016-03-18,09:10:00,3.96,3.96,3.96,3.96,35,0
2016-03-18,10:15:00,3.97,3.97,3.97,3.97,1270,0
2016-03-18,14:25:00,3.97,3.99,3.97,3.99,1110,0
2016-03-18,15:45:00,3.99,3.99,3.99,3.99,150,0
2016-03-18,16:05:00,3.99,4,3.99,4,619,0
2016-03-18,16:10:00,4.01,4.01,4.01,4.01,500,0
2016-03-18,16:25:00,4.01,4.01,4.01,4.01,114,0
2016-03-21,09:05:00,4.01,4.01,4.01,4.01,150,0
2016-03-21,09:50:00,3.97,3.97,3.97,3.97,50,0
2016-03-21,16:20:00,4.01,4.01,4.01,4.01,40,0
2016-03-21,16:30:00,4.01,4.01,4.01,4.01,20,0
2016-03-22,09:05:00,4,4.01,4,4.01,440,0
2016-03-22,09:15:00,4,4.01,4,4.01,700,0
2016-03-22,09:25:00,4.01,4.01,4.01,4.01,400,0
2016-03-22,09:45:00,4.01,4.01,4.01,4.01,100,0
2016-03-22,09:55:00,4,4,4,4,200,0
2016-03-22,10:10:00,4,4,4,4,64,0
2016-03-22,10:30:00,4,4,3.98,3.98,1470,0
2016-03-22,10:50:00,4.01,4.01,4.01,4.01,100,0
2016-03-22,11:05:00,4.01,4.01,4.01,4.01,400,0
2016-03-22,14:35:00,4.01,4.01,4.01,4.01,100,0
2016-03-22,14:45:00,3.99,3.99,3.99,3.99,250,0
2016-03-22,15:05:00,4.01,4.01,4.01,4.01,125,0
2016-03-22,15:15:00,4.01,4.01,4.01,4.01,75,0
2016-03-22,15:30:00,4.01,4.01,4.01,4.01,200,0
2016-03-22,15:55:00,4.01,4.01,4.01,4.01,340,0
2016-03-22,16:15:00,4,4,4,4,350,0
2016-03-22,16:25:00,4.01,4.01,4.01,4.01,300,0
2016-03-22,16:30:00,4.01,4.01,4.01,4.01,500,0
2016-03-22,16:40:00,4.01,4.01,4.01,4.01,15,0
2016-03-23,09:05:00,4.03,4.03,4.03,4.03,220,0
2016-03-23,09:10:00,4.03,4.03,4.03,4.03,60,0
2016-03-23,09:15:00,4.03,4.03,4.03,4.03,250,0
2016-03-23,09:35:00,4,4,4,4,590,0
2016-03-23,09:40:00,4,4,4,4,10,0
2016-03-23,10:20:00,4,4,4,4,280,0
2016-03-23,10:30:00,4,4,4,4,150,0
2016-03-23,10:40:00,4,4,4,4,200,0
2016-03-23,10:45:00,4,4,4,4,50,0
2016-03-23,10:55:00,4,4,4,4,300,0
2016-03-23,11:00:00,4,4,4,4,50,0
2016-03-23,11:10:00,4,4,4,4,94,0
2016-03-23,11:15:00,4.01,4.03,4.01,4.03,560,0
2016-03-23,11:30:00,4,4,3.99,3.99,150,0
2016-03-23,12:00:00,3.99,3.99,3.99,3.99,100,0
2016-03-23,14:05:00,3.99,3.99,3.99,3.99,100,0
2016-03-23,16:50:00,4.15,4.15,4.15,4.15,1045,0
2016-03-24,09:05:00,4.09,4.09,4.09,4.09,600,0
2016-03-24,09:30:00,4.12,4.2,4.12,4.2,2520,0
2016-03-24,12:15:00,4.21,4.21,4.21,4.21,514,0
2016-03-24,12:20:00,4.21,4.21,4.21,4.21,74,0
2016-03-24,14:20:00,4.21,4.21,4.21,4.21,200,0
2016-03-24,15:10:00,4.2,4.2,4.2,4.2,100,0
2016-03-24,16:50:00,4.25,4.25,4.25,4.25,200,0
2016-03-29,09:15:00,4.3,4.3,4.3,4.3,120,0
2016-03-29,10:55:00,4.25,4.25,4.25,4.25,200,0
2016-03-29,11:10:00,4.25,4.25,4.25,4.25,200,0
2016-03-29,15:05:00,4.3,4.3,4.3,4.3,200,0
2016-03-29,16:50:00,4.18,4.18,4.18,4.18,270,0
2016-03-30,09:40:00,4.18,4.18,4.18,4.18,1220,0
2016-03-30,15:30:00,4.2,4.2,4.17,4.17,490,0
2016-03-30,16:00:00,4.2,4.22,4.2,4.22,1000,0
2016-03-30,16:25:00,4.21,4.21,4.21,4.21,50,0
2016-03-30,16:45:00,4.2,4.2,4.2,4.2,200,0
2016-03-31,09:35:00,4.2,4.2,4.2,4.2,50,0
2016-03-31,09:50:00,4.2,4.2,4.2,4.2,25,0
2016-03-31,11:05:00,4.16,4.16,4.16,4.16,100,0
2016-03-31,12:55:00,4.12,4.12,4.12,4.12,75,0
2016-03-31,14:55:00,4.16,4.16,4.16,4.16,200,0
2016-04-01,09:35:00,4.12,4.12,4.1,4.1,765,0
2016-04-01,13:30:00,4.1,4.1,4.1,4.1,100,0
2016-04-01,13:35:00,4.1,4.1,4.1,4.1,130,0
2016-04-01,16:20:00,4.1,4.1,4.1,4.1,100,0
2016-04-01,16:25:00,4.1,4.1,4.1,4.1,900,0
2016-04-01,16:50:00,4.1,4.1,4.1,4.1,5,0
2016-04-04,10:15:00,4.13,4.2,4.13,4.2,2000,0
2016-04-04,13:50:00,4.19,4.2,4.19,4.2,250,0
2016-04-05,11:40:00,4.2,4.2,4.2,4.2,15,0
2016-04-06,10:00:00,4.2,4.2,4.2,4.2,30,0
2016-04-06,15:15:00,4.19,4.19,4.19,4.19,50,0
2016-04-06,15:20:00,4.19,4.19,4.19,4.19,650,0
2016-04-07,09:20:00,4.2,4.2,4.2,4.2,100,0
2016-04-07,11:50:00,4.14,4.14,4.07,4.07,940,0
2016-04-08,11:15:00,4.1,4.1,4.06,4.06,300,0
2016-04-08,11:20:00,4.1,4.1,4.1,4.1,25,0
2016-04-08,14:45:00,4.05,4.05,4.05,4.05,560,0
2016-04-08,15:15:00,4.05,4.05,4.05,4.05,100,0
2016-04-08,16:50:00,4.05,4.05,4.05,4.05,50,0
2016-04-11,09:35:00,4.05,4.05,4.05,4.05,300,0
2016-04-11,10:00:00,4.05,4.05,4.05,4.05,50,0
2016-04-11,10:50:00,4.03,4.03,3.84,3.84,4650,0
2016-04-11,12:20:00,3.96,3.96,3.96,3.96,200,0
2016-04-11,12:25:00,3.96,3.96,3.96,3.96,200,0
2016-04-11,16:40:00,3.85,3.85,3.85,3.85,5,0
2016-04-11,16:50:00,4.1,4.1,4.1,4.1,820,0
2016-04-12,09:20:00,4.11,4.11,4.11,4.11,100,0
2016-04-12,11:50:00,4.11,4.11,4.11,4.11,60,0
2016-04-12,15:10:00,4.11,4.11,4.11,4.11,45,0
2016-04-12,16:50:00,4.11,4.11,4.11,4.11,15,0
2016-04-13,09:05:00,4.12,4.12,4.12,4.12,150,0
2016-04-13,11:10:00,4.17,4.17,4.17,4.17,100,0
2016-04-13,11:55:00,4.18,4.18,4.18,4.18,150,0
2016-04-13,14:05:00,4.17,4.17,4.17,4.17,100,0
2016-04-13,16:35:00,4.16,4.16,4.15,4.15,215,0
2016-04-14,09:05:00,4.15,4.15,4.15,4.15,100,0
2016-04-14,14:30:00,4.15,4.15,4.15,4.15,20,0
2016-04-14,15:25:00,4.15,4.15,4.15,4.15,20,0
2016-04-14,16:15:00,4.15,4.15,4.15,4.15,531,0
2016-04-14,16:50:00,4.15,4.15,4.15,4.15,100,0
2016-04-15,09:50:00,4.17,4.17,4.17,4.17,150,0
2016-04-15,11:25:00,4.17,4.17,4.17,4.17,19,0
2016-04-15,16:45:00,4.17,4.17,4.17,4.17,40,0
2016-04-18,15:25:00,4.23,4.23,4.23,4.23,100,0
2016-04-19,09:10:00,4.17,4.17,4.17,4.17,100,0
2016-04-19,13:50:00,4.2,4.2,4.2,4.2,122,0
2016-04-19,14:40:00,4.17,4.17,4.15,4.15,500,0
2016-04-20,09:35:00,4.17,4.17,4.17,4.17,185,0
2016-04-20,09:40:00,4.17,4.17,4.17,4.17,55,0
2016-04-20,14:10:00,4.15,4.15,4.15,4.15,120,0
2016-04-20,16:40:00,4.15,4.15,4.1,4.1,1860,0
2016-04-21,09:10:00,4.1,4.1,4.1,4.1,40,0
2016-04-21,10:05:00,4.1,4.1,4.1,4.1,80,0
2016-04-21,10:30:00,4.1,4.1,4.1,4.1,312,0
2016-04-21,13:50:00,4.1,4.1,4.1,4.1,88,0
2016-04-21,15:15:00,4.09,4.1,4.09,4.1,450,0
2016-04-22,09:40:00,4.1,4.14,4.1,4.14,700,0
2016-04-22,09:45:00,4.14,4.25,4.14,4.25,2100,0
2016-04-22,09:50:00,4.29,4.3,4.29,4.29,400,0
2016-04-22,10:00:00,4.3,4.3,4.3,4.3,2400,0
2016-04-22,10:05:00,4.3,4.3,4.28,4.28,1121,0
2016-04-22,10:10:00,4.28,4.28,4.28,4.28,79,0
2016-04-22,10:25:00,4.3,4.3,4.3,4.3,4000,0
2016-04-22,11:20:00,4.3,4.3,4.3,4.3,50,0
2016-04-22,11:50:00,4.3,4.45,4.3,4.45,2800,0
2016-04-22,12:00:00,4.45,4.45,4.45,4.45,300,0
2016-04-22,12:05:00,4.48,4.48,4.48,4.48,10,0
2016-04-22,12:10:00,4.4,4.4,4.38,4.38,400,0
2016-04-22,13:55:00,4.43,4.45,4.43,4.45,300,0
2016-04-22,14:05:00,4.47,4.47,4.45,4.45,271,0
2016-04-22,14:10:00,4.48,4.48,4.48,4.48,10,0
2016-04-22,14:15:00,4.48,4.48,4.48,4.48,873,0
2016-04-22,14:30:00,4.4,4.4,4.33,4.33,873,0
2016-04-22,15:25:00,4.4,4.4,4.4,4.4,10,0
2016-04-25,09:10:00,4.4,4.4,4.4,4.4,60,0
2016-04-25,09:45:00,4.32,4.4,4.32,4.4,83,0
2016-04-25,09:50:00,4.4,4.4,4.4,4.4,25,0
2016-04-25,12:35:00,4.4,4.45,4.4,4.45,190,0
2016-04-25,14:50:00,4.45,4.45,4.45,4.45,350,0
2016-04-26,09:20:00,4.53,4.53,4.53,4.53,10,0
2016-04-26,13:05:00,4.53,4.54,4.53,4.54,100,0
2016-04-26,16:05:00,4.54,4.54,4.54,4.54,687,0
2016-04-27,09:45:00,4.54,4.54,4.54,4.54,25,0
2016-04-27,13:20:00,4.52,4.52,4.5,4.5,200,0
2016-04-27,14:45:00,4.53,4.53,4.53,4.53,5,0
2016-04-28,15:25:00,4.5,4.5,4.5,4.5,50,0
2016-04-28,16:50:00,4.53,4.53,4.53,4.53,72,0
2016-04-29,09:45:00,4.5,4.5,4.5,4.5,500,0
2016-04-29,10:30:00,4.5,4.5,4.5,4.5,50,0
2016-04-29,13:30:00,4.48,4.48,4.4,4.4,1058,0
2016-04-29,16:50:00,4.49,4.49,4.49,4.49,5,0
2016-05-02,10:20:00,4.5,4.5,4.49,4.49,125,0
2016-05-02,10:25:00,4.5,4.5,4.5,4.5,400,0
2016-05-02,10:55:00,4.53,4.53,4.53,4.53,600,0
2016-05-02,13:55:00,4.53,4.53,4.53,4.53,40,0
2016-05-04,09:55:00,4.53,4.53,4.53,4.53,10,0
2016-05-04,10:20:00,4.52,4.53,4.52,4.53,200,0
2016-05-04,13:30:00,4.53,4.56,4.53,4.56,40,0
2016-05-04,15:05:00,4.56,4.56,4.56,4.56,100,0
2016-05-05,10:30:00,4.56,4.56,4.56,4.56,101,0
2016-05-05,10:40:00,4.56,4.56,4.56,4.56,25,0
2016-05-06,09:50:00,4.56,4.56,4.54,4.56,425,0
2016-05-06,10:30:00,4.55,4.55,4.55,4.55,10,0
2016-05-06,11:30:00,4.5,4.56,4.46,4.56,210,0
2016-05-09,09:05:00,4.6,4.63,4.6,4.63,620,0
2016-05-09,09:10:00,4.6,4.6,4.6,4.6,100,0
2016-05-09,09:20:00,4.63,4.63,4.63,4.63,5,0
2016-05-09,13:05:00,4.63,4.63,4.63,4.63,10,0
2016-05-09,13:45:00,4.62,4.63,4.62,4.63,215,0
2016-05-09,16:20:00,4.63,4.63,4.63,4.63,10,0
2016-05-09,16:50:00,4.63,4.63,4.63,4.63,20,0
2016-05-10,09:05:00,4.63,4.63,4.63,4.63,20,0
2016-05-10,09:20:00,4.63,4.63,4.63,4.63,130,0
2016-05-10,09:55:00,4.67,4.67,4.67,4.67,10,0
2016-05-10,11:20:00,4.66,4.66,4.66,4.66,40,0
2016-05-10,14:25:00,4.66,4.7,4.66,4.7,1696,0
2016-05-10,15:15:00,4.7,4.7,4.7,4.7,441,0
2016-05-10,15:20:00,4.78,4.79,4.78,4.79,1024,0
2016-05-10,16:00:00,4.78,4.78,4.78,4.78,10,0
2016-05-10,16:05:00,4.79,4.79,4.79,4.79,1200,0
2016-05-10,16:10:00,4.79,4.79,4.79,4.79,5,0
2016-05-10,16:30:00,4.79,4.79,4.79,4.79,55,0
2016-05-10,16:35:00,4.79,4.79,4.79,4.79,49,0
2016-05-10,16:50:00,4.74,4.74,4.74,4.74,20,0
2016-05-11,09:05:00,4.74,4.74,4.74,4.74,150,0
2016-05-11,09:20:00,4.74,4.74,4.74,4.74,50,0
2016-05-12,09:25:00,4.77,4.77,4.77,4.77,100,0
2016-05-12,09:30:00,4.77,4.77,4.77,4.77,20,0
2016-05-12,11:05:00,4.75,4.75,4.75,4.75,320,0
2016-05-12,12:50:00,4.75,4.75,4.72,4.72,538,0
2016-05-12,13:25:00,4.78,4.78,4.78,4.78,1,0
2016-05-12,16:40:00,4.75,4.75,4.75,4.75,50,0
2016-05-13,09:10:00,4.79,4.79,4.79,4.79,100,0
2016-05-13,11:20:00,4.77,4.79,4.77,4.79,300,0
2016-05-13,11:40:00,4.72,4.72,4.72,4.72,150,0
2016-05-13,12:00:00,4.72,4.72,4.7,4.7,3056,0
2016-05-13,12:05:00,4.7,4.7,4.7,4.7,2120,0
2016-05-13,16:05:00,4.66,4.66,4.58,4.58,370,0
2016-05-13,16:20:00,4.68,4.68,4.68,4.68,100,0
