2015-04-17,09:05:00,4.8353,4.8353,4.8353,4.8353,51,0
2015-04-17,10:15:00,4.8353,4.8353,4.8353,4.8353,1464,0
2015-04-17,10:40:00,4.8748,4.8945,4.8748,4.8945,355,0
2015-04-17,10:55:00,4.8945,4.8945,4.8945,4.8945,243,0
2015-04-17,13:25:00,4.8353,4.8353,4.8254,4.8254,405,0
2015-04-17,16:25:00,4.8353,4.8353,4.8156,4.8156,268,0
2015-04-17,16:40:00,4.8156,4.8156,4.8156,4.8156,442,0
2015-04-17,16:45:00,4.8057,4.8057,4.786,4.786,203,0
2015-04-17,16:50:00,4.7564,4.7564,4.7564,4.7564,1799,0
2015-04-20,09:05:00,4.7564,4.7564,4.7564,4.7564,1889,0
2015-04-20,11:15:00,4.786,4.786,4.786,4.786,101,0
2015-04-20,11:35:00,4.7662,4.7662,4.7662,4.7662,203,0
2015-04-20,15:10:00,4.7564,4.7564,4.7564,4.7564,3268,0
2015-04-21,09:05:00,4.7662,4.7662,4.7662,4.7662,51,0
2015-04-21,09:25:00,4.707,4.707,4.707,4.707,203,0
2015-04-21,09:30:00,4.7366,4.7564,4.7366,4.7564,355,0
2015-04-21,09:45:00,4.7564,4.7564,4.7564,4.7564,203,0
2015-04-21,10:15:00,4.7662,4.7662,4.7662,4.7662,2743,0
2015-04-21,13:55:00,4.707,4.707,4.707,4.707,408,0
2015-04-22,09:05:00,4.6774,4.6774,4.6774,4.6774,507,0
2015-04-22,09:50:00,4.6972,4.6972,4.6972,4.6972,101,0
2015-04-22,10:30:00,4.6774,4.6774,4.6774,4.6774,98,0
2015-04-22,11:30:00,4.6676,4.6676,4.6577,4.6577,507,0
2015-04-22,11:45:00,4.6972,4.6972,4.6972,4.6972,51,0
2015-04-22,14:50:00,4.6577,4.6577,4.6577,4.6577,111,0
2015-04-22,15:30:00,4.6577,4.6577,4.6577,4.6577,203,0
2015-04-22,16:50:00,4.7564,4.7564,4.7564,4.7564,503,0
2015-04-23,09:05:00,4.786,4.786,4.786,4.786,203,0
2015-04-24,12:15:00,4.7465,4.7465,4.7465,4.7465,20,0
2015-04-27,11:05:00,4.7465,4.7465,4.7465,4.7465,21,0
2015-04-27,14:25:00,4.7366,4.7366,4.7366,4.7366,51,0
2015-04-27,14:40:00,4.7465,4.7465,4.7465,4.7465,203,0
2015-04-27,15:40:00,4.7465,4.7564,4.7465,4.7564,11454,0
2015-04-27,16:25:00,4.7761,4.7761,4.7761,4.7761,182,0
2015-04-27,16:35:00,4.786,4.786,4.786,4.786,101,0
2015-04-28,09:05:00,4.8847,4.8847,4.8847,4.8847,983,0
2015-04-28,12:30:00,4.8353,4.8353,4.8353,4.8353,203,0
2015-04-28,16:25:00,4.8254,4.8254,4.8254,4.8254,207,0
2015-04-28,16:50:00,4.8254,4.8254,4.8156,4.8156,872,0
2015-04-29,09:05:00,4.8156,4.8156,4.8156,4.8156,507,0
2015-04-29,09:25:00,4.8156,5.082,4.8156,5.082,9237,0
2015-04-29,09:50:00,5.082,5.082,5.082,5.082,203,0
2015-04-29,12:50:00,4.8057,4.8057,4.8057,4.8057,4054,0
2015-04-29,16:15:00,4.8452,4.8452,4.8452,4.8452,426,0
2015-04-29,16:50:00,5.0327,5.0327,5.0327,5.0327,182,0
2015-04-30,09:05:00,5.0031,5.0031,4.9833,4.9833,902,0
2015-04-30,09:10:00,4.8847,4.8847,4.8452,4.8452,220,0
2015-04-30,09:15:00,4.7564,4.7564,4.7564,4.7564,315,0
2015-04-30,09:20:00,4.6873,4.6873,4.6676,4.6676,922,0
2015-04-30,10:45:00,4.8353,4.8353,4.8353,4.8353,66,0
2015-04-30,10:55:00,4.7366,4.7366,4.707,4.707,1125,0
2015-04-30,11:35:00,4.7366,4.7366,4.7268,4.7268,861,0
2015-04-30,12:30:00,4.7268,4.7268,4.707,4.707,1013,0
2015-04-30,12:35:00,4.8057,4.8057,4.8057,4.8057,3456,0
2015-04-30,15:10:00,4.6972,4.6972,4.6873,4.6873,861,0
2015-04-30,15:45:00,4.6873,4.6873,4.6676,4.6676,507,0
2015-04-30,16:35:00,4.6676,4.6676,4.6676,4.6676,456,0
2015-04-30,16:40:00,4.786,4.786,4.786,4.786,1013,0
2015-04-30,16:50:00,4.9241,4.9241,4.9241,4.9241,6080,0
2015-05-04,09:05:00,4.9143,4.9143,4.9143,4.9143,648,0
2015-05-04,09:50:00,4.8945,4.9044,4.8945,4.9044,405,0
2015-05-04,12:25:00,4.8847,4.8847,4.8847,4.8847,203,0
2015-05-05,09:20:00,4.8945,4.8945,4.8945,4.8945,253,0
2015-05-05,14:40:00,4.8353,4.8353,4.8353,4.8353,269,0
2015-05-05,16:50:00,4.8945,4.8945,4.8945,4.8945,1013,0
2015-05-06,10:10:00,4.8945,4.8945,4.8945,4.8945,51,0
2015-05-06,10:45:00,4.8847,4.8847,4.8847,4.8847,203,0
2015-05-06,11:00:00,4.8847,4.8847,4.8847,4.8847,111,0
2015-05-06,11:15:00,4.8847,4.8847,4.8847,4.8847,512,0
2015-05-06,12:50:00,4.8847,4.8847,4.8847,4.8847,162,0
2015-05-06,13:55:00,4.8847,4.8847,4.8847,4.8847,709,0
2015-05-06,14:40:00,4.8353,4.8353,4.8353,4.8353,203,0
2015-05-06,14:45:00,4.8353,4.8353,4.8353,4.8353,309,0
2015-05-06,15:00:00,4.8057,4.8057,4.8057,4.8057,203,0
2015-05-06,16:10:00,4.8057,4.8057,4.7564,4.7564,456,0
2015-05-06,16:30:00,4.7366,4.7366,4.7366,4.7366,46,0
2015-05-06,16:45:00,4.7366,4.7366,4.6873,4.6873,978,0
2015-05-06,16:50:00,4.8748,4.8748,4.8748,4.8748,1013,0
2015-05-07,09:05:00,4.8748,4.8748,4.8748,4.8748,25,0
2015-05-07,09:25:00,4.8452,4.8452,4.8452,4.8452,203,0
2015-05-07,09:30:00,4.8353,4.8353,4.8353,4.8353,527,0
2015-05-07,09:35:00,4.8353,4.8353,4.8353,4.8353,588,0
2015-05-07,11:25:00,4.7958,4.7958,4.7958,4.7958,405,0
2015-05-07,12:30:00,4.7761,4.7761,4.7564,4.7564,228,0
2015-05-07,13:45:00,4.7564,4.7564,4.7564,4.7564,177,0
2015-05-07,13:50:00,4.7564,4.7564,4.7564,4.7564,142,0
2015-05-07,15:35:00,4.7958,4.7958,4.7958,4.7958,615,0
2015-05-07,16:05:00,4.7662,4.7662,4.7662,4.7662,7904,0
2015-05-07,16:45:00,4.7662,4.7662,4.7662,4.7662,478,0
2015-05-07,16:50:00,4.8748,4.8748,4.8748,4.8748,1450,0
2015-05-08,11:25:00,4.855,4.855,4.855,4.855,101,0
2015-05-08,13:20:00,4.8748,4.8748,4.8748,4.8748,203,0
2015-05-08,16:50:00,4.8748,4.8748,4.8748,4.8748,101,0
2015-05-11,09:10:00,4.855,4.855,4.855,4.855,207,0
2015-05-11,09:20:00,4.8649,4.8649,4.8649,4.8649,436,0
2015-05-11,16:45:00,4.855,4.9241,4.855,4.9241,1013,0
2015-05-11,16:50:00,4.9241,4.9241,4.9241,4.9241,1013,0
2015-05-12,09:05:00,4.9241,4.9241,4.9241,4.9241,20,0
2015-05-13,14:25:00,4.8353,4.8353,4.8353,4.8353,203,0
2015-05-13,16:15:00,4.8156,4.8156,4.7958,4.7958,304,0
2015-05-13,16:30:00,4.786,4.786,4.786,4.786,53,0
2015-05-13,16:40:00,4.786,4.786,4.786,4.786,1013,0
2015-05-13,16:50:00,4.786,4.786,4.786,4.786,3344,0
2015-05-14,10:00:00,4.8254,4.8254,4.8254,4.8254,51,0
2015-05-14,14:25:00,4.786,4.786,4.786,4.786,5148,0
2015-05-14,14:50:00,4.786,4.786,4.786,4.786,304,0
2015-05-14,16:45:00,4.8156,4.8945,4.8156,4.8945,2027,0
2015-05-14,16:50:00,4.9241,4.9241,4.9241,4.9241,1731,0
2015-05-15,11:15:00,4.8847,4.8847,4.8847,4.8847,507,0
2015-05-15,12:15:00,4.855,4.855,4.8353,4.8353,1115,0
2015-05-15,16:40:00,4.8748,4.8847,4.8748,4.8847,507,0
2015-05-15,16:50:00,4.8945,4.9044,4.8945,4.9044,304,0
2015-05-18,10:15:00,4.8057,4.8057,4.8057,4.8057,348,0
2015-05-18,14:35:00,4.8156,4.8156,4.8156,4.8156,2027,0
2015-05-18,16:40:00,4.8748,4.9044,4.8748,4.9044,405,0
2015-05-19,10:10:00,4.934,4.934,4.934,4.934,20,0
2015-05-19,11:10:00,4.8452,4.8452,4.8452,4.8452,101,0
2015-05-19,11:40:00,4.8452,4.8452,4.8452,4.8452,101,0
2015-05-19,12:30:00,4.8156,4.8156,4.8156,4.8156,5270,0
2015-05-19,13:00:00,4.8452,4.8452,4.8452,4.8452,405,0
2015-05-19,13:15:00,4.8156,4.8156,4.8156,4.8156,2474,0
2015-05-19,13:50:00,4.8254,4.8254,4.8156,4.8156,4855,0
2015-05-19,14:15:00,4.8847,4.934,4.8847,4.934,2027,0
2015-05-19,15:35:00,4.8452,4.8452,4.8452,4.8452,109,0
2015-05-19,16:05:00,4.9241,4.9833,4.9241,4.9833,6384,0
2015-05-19,16:15:00,4.9241,4.9241,4.9241,4.9241,3040,0
2015-05-19,16:45:00,5.0425,5.1017,5.0425,5.1017,2123,0
2015-05-19,16:50:00,5.1314,5.1314,5.1314,5.1314,324,0
2015-05-20,09:05:00,5.1314,5.1314,4.9439,4.9439,2110,0
2015-05-20,10:00:00,4.9735,4.9735,4.9735,4.9735,405,0
2015-05-20,10:10:00,4.9833,4.9833,4.9833,4.9833,127,0
2015-05-20,14:20:00,5.0031,5.0031,5.0031,5.0031,405,0
2015-05-20,14:45:00,5.0031,5.0031,5.0031,5.0031,304,0
2015-05-20,15:30:00,4.9932,4.9932,4.9932,4.9932,203,0
2015-05-20,15:50:00,5.0031,5.0031,5.0031,5.0031,304,0
2015-05-20,16:45:00,5.0031,5.0721,5.0031,5.0721,2027,0
2015-05-20,16:50:00,5.0721,5.0721,5.0721,5.0721,1925,0
2015-05-21,09:10:00,5.0721,5.0721,5.0721,5.0721,51,0
2015-05-21,10:15:00,5.0623,5.0623,5.0623,5.0623,1593,0
2015-05-21,11:45:00,5.0524,5.0623,5.0524,5.0623,3344,0
2015-05-21,11:50:00,5.0228,5.0228,5.0129,5.0129,233,0
2015-05-21,14:05:00,5.0129,5.0129,5.0129,5.0129,280,0
2015-05-21,16:45:00,5.0623,5.0721,5.0623,5.0721,638,0
2015-05-22,09:20:00,5.0327,5.0327,5.0327,5.0327,199,0
2015-05-22,10:00:00,4.9932,4.9932,4.9932,4.9932,29,0
2015-05-22,15:20:00,4.9932,4.9932,4.9932,4.9932,15,0
2015-05-22,16:25:00,5.0228,5.0425,5.0228,5.0425,772,0
2015-05-22,16:50:00,5.1314,5.1314,5.1314,5.1314,1013,0
2015-05-25,09:30:00,5.1215,5.1215,5.1215,5.1215,714,0
2015-05-25,10:05:00,5.0721,5.0721,5.0721,5.0721,51,0
2015-05-25,15:50:00,4.9735,5.1215,4.9636,5.1215,2806,0
2015-05-25,15:55:00,5.1215,5.1314,5.1215,5.1314,2148,0
2015-05-25,16:45:00,5.0031,5.0031,4.8452,4.9833,4282,0
2015-05-25,16:50:00,4.8156,4.8156,4.8156,4.8156,553,0
2015-05-26,09:20:00,4.8847,4.8847,4.8847,4.8847,167,0
2015-05-26,11:30:00,4.8748,4.8748,4.8748,4.8748,238,0
2015-05-26,11:45:00,4.9241,4.9241,4.9241,4.9241,304,0
2015-05-26,11:50:00,4.9241,4.9241,4.9241,4.9241,304,0
2015-05-27,09:15:00,4.9241,4.9241,4.9241,4.9241,152,0
2015-05-27,09:20:00,4.9241,4.9833,4.9241,4.9833,669,0
2015-05-27,09:40:00,4.9241,4.9932,4.9241,4.9932,234601,0
2015-05-27,10:10:00,5.0031,5.1215,5.0031,5.1215,3008,0
2015-05-27,10:30:00,5.1215,5.1215,5.1215,5.1215,197,0
2015-05-27,10:45:00,5.082,5.1215,4.9439,5.1215,2179,0
2015-05-27,10:55:00,5.1017,5.1017,5.1017,5.1017,3547,0
2015-05-27,11:15:00,5.1017,5.1017,5.1017,5.1017,507,0
2015-05-27,11:30:00,5.1017,5.1017,4.9833,4.9833,304,0
2015-05-27,11:35:00,4.9833,5.1116,4.9833,5.1116,152,0
2015-05-27,14:45:00,5.1017,5.1017,5.1017,5.1017,25,0
2015-05-27,15:00:00,5.0919,5.0919,5.0919,5.0919,689,0
2015-05-27,15:15:00,5.1116,5.1116,5.1116,5.1116,10,0
2015-05-27,15:35:00,5.1116,5.1116,5.1116,5.1116,760,0
2015-05-27,15:40:00,5.082,5.082,5.082,5.082,22,0
2015-05-27,16:15:00,5.082,5.082,5.082,5.082,45,0
2015-05-27,16:20:00,5.082,5.082,5.082,5.082,811,0
2015-05-27,16:50:00,5.082,5.1116,5.082,5.1116,1526,0
2015-05-28,09:05:00,5.1116,5.2103,5.1116,5.2103,2274,0
2015-05-28,09:35:00,5.1215,5.2103,5.1215,5.2103,294,0
2015-05-28,09:50:00,5.2103,5.2202,5.2103,5.2202,567,0
2015-05-28,09:55:00,5.2202,5.2202,5.2202,5.2202,770,0
2015-05-28,10:00:00,5.1708,5.2202,5.1708,5.2202,4090,0
2015-05-28,10:05:00,5.2202,5.309,5.2202,5.309,1822,0
2015-05-28,10:10:00,5.309,5.309,5.309,5.309,202,0
2015-05-28,10:20:00,5.2498,5.2498,5.2498,5.2498,1520,0
2015-05-28,10:30:00,5.2399,5.309,5.2004,5.2004,3559,0
2015-05-28,10:35:00,5.3287,5.3287,5.3287,5.3287,61,0
2015-05-28,10:55:00,5.2794,5.2794,5.2794,5.2794,941,0
2015-05-28,11:00:00,5.2794,5.2794,5.2794,5.2794,72,0
2015-05-28,11:15:00,5.2794,5.2794,5.2794,5.2794,62,0
2015-05-28,12:05:00,5.3188,5.3188,5.3188,5.3188,163,0
2015-05-28,12:30:00,5.3287,5.3287,5.3287,5.3287,1283,0
2015-05-28,13:20:00,5.3287,5.3287,5.3287,5.3287,507,0
2015-05-28,14:30:00,5.3287,5.3287,5.3287,5.3287,931,0
2015-05-28,14:45:00,5.3682,5.3781,5.3682,5.3781,608,0
2015-05-28,14:55:00,5.3781,5.3781,5.3781,5.3781,594,0
2015-05-28,15:20:00,5.3781,5.3781,5.3781,5.3781,1241,0
2015-05-28,16:05:00,5.3781,5.3781,5.3781,5.3781,334,0
2015-05-28,16:45:00,5.4077,5.4077,5.4077,5.4077,312,0
2015-05-29,09:05:00,5.4175,5.4767,5.4175,5.4767,2293,0
2015-05-29,09:10:00,5.457,5.457,5.457,5.457,385,0
2015-05-29,09:15:00,5.5063,5.5063,5.5063,5.5063,507,0
2015-05-29,09:25:00,5.4767,5.4767,5.4767,5.4767,740,0
2015-05-29,09:30:00,5.4669,5.4669,5.4669,5.4669,203,0
2015-05-29,09:45:00,5.5162,5.5162,5.5162,5.5162,51,0
2015-05-29,09:55:00,5.5162,5.5162,5.5162,5.5162,324,0
2015-05-29,10:05:00,5.5162,5.5754,5.5162,5.5754,1145,0
2015-05-29,10:20:00,5.5261,5.5951,5.5261,5.5951,22,0
2015-05-29,10:25:00,5.5951,5.5951,5.5261,5.5261,365,0
2015-05-29,11:30:00,5.5261,5.5261,5.5261,5.5261,251,0
2015-05-29,12:25:00,5.3781,5.3781,5.3781,5.3781,709,0
2015-05-29,12:30:00,5.3781,5.3781,5.3484,5.3484,512,0
2015-05-29,15:30:00,5.309,5.309,5.309,5.309,36,0
2015-05-29,16:30:00,5.309,5.309,5.309,5.309,203,0
2015-05-29,16:45:00,5.309,5.309,5.309,5.309,405,0
2015-05-29,16:50:00,5.309,5.309,5.309,5.309,152,0
2015-06-01,09:45:00,5.5261,5.5261,5.5261,5.5261,4054,0
2015-06-01,10:40:00,5.4274,5.4866,5.4274,5.4866,355,0
2015-06-01,10:50:00,5.4866,5.4866,5.4669,5.4767,4155,0
2015-06-01,10:55:00,5.5162,5.5557,5.5162,5.5557,1977,0
2015-06-01,11:15:00,5.6544,5.6544,5.6544,5.6544,50,0
2015-06-01,11:20:00,5.5655,5.5655,5.5655,5.5655,448,0
2015-06-01,11:30:00,5.5754,5.5754,5.5655,5.5655,836,0
2015-06-01,12:15:00,5.6445,5.6741,5.6445,5.6741,992,0
2015-06-01,12:25:00,5.6741,5.6741,5.6642,5.6741,1723,0
2015-06-01,12:30:00,5.6741,5.6741,5.6741,5.6741,1013,0
2015-06-01,14:25:00,5.6642,5.6741,5.6642,5.6741,2094,0
2015-06-01,14:30:00,5.6741,5.6741,5.6741,5.6741,203,0
2015-06-01,14:35:00,5.6741,5.6741,5.6741,5.6741,105,0
2015-06-01,14:55:00,5.6741,5.7234,5.6741,5.7234,1786,0
2015-06-01,15:00:00,5.7629,5.7728,5.7333,5.7333,648,0
2015-06-01,15:05:00,5.7234,5.7234,5.7234,5.7234,152,0
2015-06-01,15:25:00,5.7432,5.7432,5.7432,5.7432,290,0
2015-06-01,15:30:00,5.7826,5.7826,5.7826,5.7826,185,0
2015-06-01,15:40:00,5.7826,5.9208,5.7826,5.9208,678,0
2015-06-01,15:45:00,5.9504,5.9504,5.9504,5.9504,466,0
2015-06-01,15:55:00,5.9504,5.9603,5.9504,5.9603,101,0
2015-06-01,16:00:00,5.9208,5.9208,5.7826,5.7826,2027,0
2015-06-01,16:05:00,5.8221,5.8221,5.8221,5.8221,308,0
2015-06-01,16:10:00,5.7728,5.7728,5.7728,5.7728,605,0
2015-06-01,16:20:00,5.9504,5.9504,5.9504,5.9504,932,0
2015-06-01,16:40:00,5.9603,5.9603,5.9603,5.9603,271,0
2015-06-01,16:45:00,5.9603,6.0392,5.9603,6.0392,863,0
2015-06-01,16:50:00,6.1182,6.1182,6.1182,6.1182,1013,0
2015-06-02,09:05:00,6.1182,6.1182,6.1182,6.1182,318,0
2015-06-02,09:10:00,5.98,5.98,5.9701,5.9701,405,0
2015-06-02,09:15:00,5.9701,5.9701,5.9208,5.9208,1204,0
2015-06-02,09:40:00,5.9307,5.9307,5.9307,5.9307,274,0
2015-06-02,09:55:00,5.9307,5.9307,5.9307,5.9307,1013,0
2015-06-02,10:10:00,5.9307,5.9307,5.9208,5.9208,1272,0
2015-06-02,10:30:00,5.8715,5.8715,5.8715,5.8715,203,0
2015-06-02,10:45:00,5.8715,5.8715,5.7728,5.8221,2646,0
2015-06-02,10:50:00,5.9109,5.9109,5.9109,5.9109,172,0
2015-06-02,11:05:00,5.9109,5.9208,5.9109,5.9208,2432,0
2015-06-02,11:25:00,5.8813,5.8813,5.7728,5.7728,1013,0
2015-06-02,13:05:00,5.8912,5.8912,5.8912,5.8912,172,0
2015-06-02,13:15:00,5.8912,5.9208,5.8912,5.9208,1013,0
2015-06-02,13:35:00,5.9109,5.9109,5.9109,5.9109,203,0
2015-06-02,15:30:00,5.8813,5.8912,5.8813,5.8912,304,0
2015-06-02,15:55:00,5.832,5.832,5.7826,5.7826,922,0
2015-06-02,16:50:00,5.8221,5.9011,5.8221,5.9011,1218,0
2015-06-03,09:05:00,5.9405,6.0787,5.9405,6.0787,3337,0
2015-06-03,09:10:00,5.9504,6.0787,5.9504,6.0787,122,0
2015-06-03,09:20:00,5.9504,5.9504,5.9504,5.9504,2533,0
2015-06-03,09:40:00,6.0787,6.0787,6.0787,6.0787,10,0
2015-06-03,10:00:00,5.9701,5.9701,5.9701,5.9701,12380,0
2015-06-03,10:05:00,5.9701,6.0787,5.9701,6.0787,152,0
2015-06-03,10:30:00,5.98,6.0787,5.98,6.0787,1103,0
2015-06-03,10:35:00,6.0787,6.0885,6.0787,6.0885,3316,0
2015-06-03,10:40:00,6.0885,6.0885,6.0885,6.0885,738,0
2015-06-03,10:45:00,6.1083,6.1083,5.9899,5.9899,4054,0
2015-06-03,10:55:00,6.0293,6.0293,6.0293,6.0293,1593,0
2015-06-03,11:20:00,6.0688,6.1083,6.0688,6.1083,946,0
2015-06-03,11:25:00,6.1083,6.1675,6.1083,6.1675,1898,0
2015-06-03,11:40:00,6.1675,6.2168,6.1675,6.2168,1698,0
2015-06-03,11:45:00,6.2366,6.2366,6.2366,6.2366,203,0
2015-06-03,11:50:00,6.3155,6.3747,6.1576,6.2563,2935,0
2015-06-03,11:55:00,6.3649,6.3747,6.3649,6.3747,1236,0
2015-06-03,12:00:00,6.3747,6.503,6.3747,6.4142,4728,0
2015-06-03,12:05:00,6.4635,6.4635,6.4142,6.4142,784,0
2015-06-03,12:10:00,6.4142,6.4142,6.4142,6.4142,152,0
2015-06-03,12:15:00,6.3451,6.4043,6.3451,6.4043,201,0
2015-06-03,12:20:00,6.4043,6.4043,6.3846,6.3846,395,0
2015-06-03,12:25:00,6.3846,6.3846,6.3352,6.3846,611,0
2015-06-03,12:30:00,6.3747,6.3747,6.3747,6.3747,608,0
2015-06-03,12:35:00,6.3649,6.3747,6.355,6.3747,1094,0
2015-06-03,12:45:00,6.3451,6.3451,6.3155,6.3155,3166,0
2015-06-03,12:50:00,6.4043,6.4043,6.4043,6.4043,152,0
2015-06-03,13:30:00,6.3254,6.3254,6.3155,6.3155,1246,0
2015-06-03,13:40:00,6.3155,6.3155,6.3155,6.3155,41,0
2015-06-03,14:05:00,6.3155,6.3155,6.3155,6.3155,1419,0
2015-06-03,14:35:00,6.3056,6.3056,6.3056,6.3056,405,0
2015-06-03,15:45:00,6.2958,6.2958,6.2958,6.2958,447,0
2015-06-03,16:00:00,6.2958,6.2958,6.2958,6.2958,405,0
2015-06-03,16:20:00,6.2958,6.2958,6.2958,6.2958,529,0
2015-06-03,16:35:00,6.2662,6.2662,6.2662,6.2662,203,0
2015-06-03,16:45:00,6.2958,6.2958,6.2958,6.2958,1358,0
2015-06-03,16:50:00,6.3056,6.3155,6.3056,6.3155,6850,0
2015-06-05,09:05:00,6.2563,6.2563,6.2563,6.2563,902,0
2015-06-05,09:30:00,6.2563,6.2563,6.2563,6.2563,1520,0
2015-06-05,09:45:00,6.2563,6.3155,6.2563,6.2563,557,0
2015-06-05,10:25:00,6.3155,6.3747,6.2662,6.3747,2037,0
2015-06-05,12:40:00,6.2859,6.2859,6.2859,6.2859,167,0
2015-06-05,12:45:00,6.2859,6.2859,6.2662,6.2662,362,0
2015-06-05,13:05:00,6.2662,6.2662,6.2267,6.2267,2435,0
2015-06-05,13:15:00,6.1675,6.1675,6.1478,6.1478,3749,0
2015-06-05,13:20:00,6.1478,6.1478,6.0787,6.0787,2996,0
2015-06-05,13:25:00,6.0787,6.2366,6.0688,6.0688,9190,0
2015-06-05,15:25:00,6.1182,6.1182,6.1182,6.1182,365,0
2015-06-05,16:00:00,6.2366,6.2366,6.2366,6.2366,5,0
2015-06-05,16:50:00,6.2662,6.2662,6.2662,6.2662,608,0
2015-06-08,09:05:00,6.3846,6.4438,6.3846,6.4438,2402,0
2015-06-08,09:10:00,6.4438,6.4438,6.4438,6.4438,10,0
2015-06-08,09:35:00,6.276,6.276,6.2662,6.2662,1772,0
2015-06-08,09:40:00,6.2662,6.2662,6.0984,6.0984,236,0
2015-06-08,10:15:00,6.1182,6.1182,6.0984,6.0984,557,0
2015-06-08,10:30:00,6.0787,6.0787,6.0787,6.0787,507,0
2015-06-08,13:25:00,6.276,6.276,6.276,6.276,15,0
2015-06-08,13:30:00,6.128,6.128,6.128,6.128,4054,0
2015-06-08,14:35:00,6.1675,6.1675,6.1675,6.1675,1013,0
2015-06-08,14:40:00,6.1182,6.207,6.0984,6.207,3868,0
2015-06-08,15:10:00,6.1872,6.1872,6.1872,6.1872,1520,0
2015-06-08,15:25:00,6.1971,6.1971,6.1971,6.1971,1758,0
2015-06-08,15:30:00,6.1971,6.1971,6.1971,6.1971,106,0
2015-06-08,16:50:00,6.0984,6.0984,6.0984,6.0984,806,0
2015-06-09,09:55:00,6.128,6.128,6.0885,6.0885,1824,0
2015-06-09,10:00:00,6.1774,6.1774,6.1774,6.1774,22,0
2015-06-09,10:30:00,6.1774,6.1971,6.1774,6.1971,182,0
2015-06-09,13:20:00,6.1774,6.1774,6.1774,6.1774,507,0
2015-06-09,14:20:00,6.0984,6.0984,6.0984,6.0984,345,0
2015-06-09,14:25:00,6.0885,6.0885,6.0885,6.0885,875,0
2015-06-09,14:35:00,6.0885,6.0885,6.0885,6.0885,334,0
2015-06-09,15:30:00,6.0984,6.0984,6.0688,6.0688,2637,0
2015-06-10,09:05:00,5.8912,5.9504,5.8813,5.9504,4207,0
2015-06-10,09:20:00,5.9405,6.1379,5.9405,6.1379,1209,0
2015-06-10,11:40:00,5.9997,6.0984,5.98,6.0984,1721,0
2015-06-10,11:45:00,6.0491,6.0984,6.0491,6.0984,465,0
2015-06-10,13:05:00,6.0589,6.0589,6.0589,6.0589,35,0
2015-06-10,14:20:00,6.0491,6.0491,6.0491,6.0491,659,0
2015-06-10,14:25:00,6.0688,6.0984,6.0688,6.0984,1085,0
2015-06-10,15:45:00,6.0984,6.0984,6.0984,6.0984,152,0
2015-06-10,15:50:00,6.0984,6.1182,6.0984,6.1182,33,0
2015-06-10,16:50:00,6.0688,6.0688,6.0491,6.0491,1124,0
2015-06-11,09:05:00,5.9997,5.9997,5.9997,5.9997,304,0
2015-06-11,09:25:00,5.9997,5.9997,5.9997,5.9997,329,0
2015-06-11,09:35:00,5.9997,5.9997,5.9997,5.9997,193,0
2015-06-11,09:50:00,6.0787,6.0787,6.0787,6.0787,101,0
2015-06-11,12:00:00,6.0392,6.0392,6.0392,6.0392,33,0
2015-06-11,14:35:00,6.0787,6.0787,6.0787,6.0787,203,0
2015-06-12,09:05:00,6.1182,6.1182,6.1182,6.1182,709,0
2015-06-12,09:35:00,6.1182,6.1182,6.1182,6.1182,51,0
2015-06-12,10:15:00,6.0688,6.0688,6.0491,6.0491,304,0
2015-06-12,14:25:00,6.0491,6.0491,6.0491,6.0491,152,0
2015-06-12,16:25:00,6.0392,6.0392,6.0392,6.0392,150,0
2015-06-15,09:05:00,6.0392,6.0392,6.0392,6.0392,10,0
2015-06-15,09:25:00,6.0787,6.0787,6.0787,6.0787,321,0
2015-06-15,12:30:00,6.0688,6.0688,6.0688,6.0688,203,0
2015-06-15,13:00:00,6.0195,6.0195,6.0195,6.0195,304,0
2015-06-15,13:05:00,6.0688,6.0688,6.0688,6.0688,405,0
2015-06-15,13:10:00,6.0688,6.0688,6.0688,6.0688,428,0
2015-06-15,13:20:00,6.0293,6.0392,6.0293,6.0392,476,0
2015-06-15,13:45:00,6.0787,6.0787,6.0787,6.0787,2341,0
2015-06-16,11:40:00,6.0392,6.0392,6.0392,6.0392,71,0
2015-06-16,14:05:00,6.0392,6.0392,6.0392,6.0392,168,0
2015-06-16,14:45:00,6.0392,6.0392,6.0392,6.0392,2322,0
2015-06-16,15:25:00,6.0688,6.0688,6.0688,6.0688,401,0
2015-06-16,16:10:00,6.0293,6.0293,6.0293,6.0293,46,0
2015-06-16,16:50:00,6.0293,6.0293,6.0293,6.0293,820,0
2015-06-17,09:05:00,6.0195,6.0195,6.0195,6.0195,101,0
2015-06-17,10:50:00,6.0787,6.0885,6.0787,6.0885,712,0
2015-06-17,11:05:00,6.0392,6.0392,6.0293,6.0293,1013,0
2015-06-17,11:20:00,6.0885,6.1182,6.0885,6.1182,1112,0
2015-06-17,11:30:00,6.1182,6.1675,6.1182,6.1675,162,0
2015-06-17,11:35:00,6.1675,6.1675,6.1675,6.1675,101,0
2015-06-17,11:50:00,6.1675,6.1675,6.1675,6.1675,811,0
2015-06-17,12:35:00,6.1182,6.1182,6.1182,6.1182,205,0
2015-06-17,12:45:00,6.1182,6.1675,6.0491,6.1675,2027,0
2015-06-17,12:50:00,6.0589,6.1675,6.0589,6.1675,3458,0
2015-06-17,14:45:00,6.1182,6.1182,6.1182,6.1182,1318,0
2015-06-17,16:15:00,6.0984,6.0984,6.0984,6.0984,355,0
2015-06-17,16:30:00,6.0688,6.0688,6.0688,6.0688,71,0
2015-06-17,16:50:00,6.0491,6.0491,6.0491,6.0491,656,0
2015-06-18,09:30:00,6.0589,6.0589,6.0589,6.0589,152,0
2015-06-18,09:50:00,6.0491,6.0491,6.0491,6.0491,150,0
2015-06-18,09:55:00,6.0491,6.0491,6.0491,6.0491,304,0
2015-06-18,10:35:00,6.0688,6.0688,6.0688,6.0688,152,0
2015-06-18,10:45:00,6.0589,6.0589,6.0589,6.0589,203,0
2015-06-18,11:30:00,6.0491,6.0491,6.0491,6.0491,203,0
2015-06-18,12:35:00,6.0491,6.0491,6.0491,6.0491,304,0
2015-06-18,13:50:00,6.0688,6.0688,6.0688,6.0688,440,0
2015-06-18,14:15:00,6.0787,6.0787,6.0787,6.0787,203,0
2015-06-18,15:40:00,6.1083,6.1182,6.1083,6.1182,1384,0
2015-06-18,15:45:00,6.1182,6.1675,6.1182,6.1675,645,0
2015-06-18,16:15:00,6.1675,6.1774,6.1675,6.1774,724,0
2015-06-18,16:20:00,6.1774,6.1774,6.1774,6.1774,347,0
2015-06-18,16:30:00,6.1774,6.2464,6.1774,6.2464,1509,0
2015-06-19,09:05:00,6.2168,6.2168,6.2168,6.2168,51,0
2015-06-19,09:10:00,6.3056,6.3945,6.3056,6.3945,944,0
2015-06-19,09:20:00,6.3846,6.3846,6.3254,6.3747,1115,0
2015-06-19,09:25:00,6.4043,6.4043,6.4043,6.4043,51,0
2015-06-19,09:30:00,6.3846,6.4537,6.3846,6.4537,1966,0
2015-06-19,09:35:00,6.3451,6.4537,6.3451,6.4537,5128,0
2015-06-19,09:40:00,6.4537,6.4537,6.4537,6.4537,255,0
2015-06-19,09:45:00,6.4537,6.4537,6.4142,6.4142,1154,0
2015-06-19,10:30:00,6.4142,6.4142,6.4142,6.4142,218,0
2015-06-19,11:15:00,6.3747,6.3747,6.3649,6.3649,347,0
2015-06-19,11:20:00,6.4043,6.4043,6.4043,6.4043,7,0
2015-06-19,11:40:00,6.4043,6.4043,6.4043,6.4043,203,0
2015-06-19,12:25:00,6.4043,6.4043,6.4043,6.4043,314,0
2015-06-19,12:45:00,6.3649,6.3649,6.3649,6.3649,349,0
2015-06-19,13:25:00,6.4043,6.4043,6.4043,6.4043,2027,0
2015-06-19,14:10:00,6.3649,6.3649,6.3649,6.3649,152,0
2015-06-19,14:15:00,6.3945,6.3945,6.3945,6.3945,3040,0
2015-06-19,15:10:00,6.3649,6.3649,6.355,6.355,217,0
2015-06-19,15:55:00,6.3747,6.3747,6.3747,6.3747,85,0
2015-06-19,16:40:00,6.3352,6.3352,6.3352,6.3352,51,0
2015-06-22,09:05:00,6.4241,6.4241,6.4241,6.4241,531,0
2015-06-22,11:05:00,6.3352,6.3352,6.3352,6.3352,285,0
2015-06-22,11:10:00,6.4043,6.4142,6.4043,6.4142,4560,0
2015-06-22,11:15:00,6.4043,6.4043,6.4043,6.4043,602,0
2015-06-22,11:40:00,6.3945,6.3945,6.3945,6.3945,107,0
2015-06-22,13:55:00,6.3649,6.3649,6.3649,6.3649,93,0
2015-06-22,14:10:00,6.3451,6.3451,6.3155,6.3155,1267,0
2015-06-22,16:30:00,6.2464,6.2464,6.2464,6.2464,243,0
2015-06-22,16:50:00,6.2464,6.2464,6.2464,6.2464,405,0
2015-06-23,09:25:00,6.3451,6.3451,6.3451,6.3451,203,0
2015-06-23,09:30:00,6.1576,6.1576,6.1576,6.1576,3040,0
2015-06-23,12:55:00,6.1971,6.1971,6.1971,6.1971,101,0
2015-06-24,09:05:00,6.1379,6.1379,6.1379,6.1379,274,0
2015-06-24,09:50:00,6.1478,6.1478,6.1478,6.1478,507,0
2015-06-24,12:00:00,6.128,6.128,6.128,6.128,203,0
2015-06-24,12:15:00,6.1182,6.1182,6.1182,6.1182,405,0
2015-06-24,12:30:00,6.1182,6.1182,6.1182,6.1182,912,0
2015-06-24,13:15:00,6.128,6.128,6.128,6.128,213,0
2015-06-24,14:20:00,6.128,6.128,6.128,6.128,61,0
2015-06-24,14:30:00,6.128,6.128,6.128,6.128,317,0
2015-06-24,15:10:00,6.128,6.128,6.128,6.128,27,0
2015-06-24,15:25:00,6.1182,6.1182,6.1182,6.1182,689,0
2015-06-24,15:30:00,6.1576,6.1675,6.1576,6.1675,770,0
2015-06-24,16:00:00,6.1182,6.1182,6.1182,6.1182,304,0
2015-06-24,16:50:00,6.1182,6.1182,6.1182,6.1182,1013,0
2015-06-25,09:05:00,6.1182,6.1182,6.1182,6.1182,1216,0
2015-06-25,09:40:00,6.1182,6.1182,6.1182,6.1182,1054,0
2015-06-25,10:05:00,6.1182,6.1182,6.1182,6.1182,101,0
2015-06-25,11:35:00,6.1182,6.1182,6.1182,6.1182,900,0
2015-06-25,16:50:00,6.1182,6.1182,6.1182,6.1182,811,0
2015-06-26,09:05:00,6.1182,6.1182,6.1182,6.1182,3040,0
2015-06-26,09:10:00,6.1478,6.1478,6.1478,6.1478,203,0
2015-06-26,09:15:00,6.207,6.2168,6.207,6.2168,3344,0
2015-06-26,09:25:00,6.128,6.128,6.128,6.128,160,0
2015-06-26,10:45:00,6.128,6.128,6.0491,6.0491,2824,0
2015-06-26,10:50:00,6.0491,6.0491,6.0491,6.0491,1584,0
2015-06-26,10:55:00,6.1182,6.1182,6.1182,6.1182,51,0
2015-06-26,11:00:00,6.1182,6.1182,6.1182,6.1182,436,0
2015-06-26,13:25:00,6.0589,6.0589,6.0392,6.0392,709,0
2015-06-26,15:05:00,6.0096,6.0885,5.9405,6.0885,2260,0
2015-06-26,16:50:00,5.98,5.98,5.98,5.98,968,0
2015-06-29,09:05:00,5.35,5.35,5.35,5.35,150,0
2015-06-29,09:10:00,5.65,5.65,5.65,5.65,552,0
2015-06-29,09:15:00,5.7,5.7,5.41,5.41,192,0
2015-06-29,09:30:00,5.46,5.46,5.46,5.46,773,0
2015-06-29,10:00:00,5.8,5.8,5.8,5.8,100,0
2015-06-29,13:00:00,5.82,5.82,5.81,5.81,755,0
2015-06-29,15:55:00,5.82,5.82,5.82,5.82,120,0
2015-06-29,16:05:00,5.82,5.82,5.81,5.81,100,0
2015-06-29,16:10:00,5.88,5.88,5.88,5.88,200,0
2015-06-30,13:45:00,5.9,5.9,5.9,5.9,50,0
2015-07-01,09:05:00,5.75,5.75,5.73,5.73,200,0
2015-07-01,16:35:00,5.73,5.73,5.73,5.73,375,0
2015-07-01,16:40:00,5.8,5.88,5.8,5.88,400,0
2015-07-01,16:50:00,5.9,5.9,5.9,5.9,2100,0
2015-07-02,09:30:00,5.95,5.95,5.89,5.89,125,0
2015-07-02,11:25:00,5.92,5.95,5.92,5.95,325,0
2015-07-02,13:20:00,5.9,5.9,5.9,5.9,244,0
2015-07-02,16:50:00,5.88,5.88,5.88,5.88,144,0
2015-07-03,09:05:00,5.75,5.75,5.75,5.75,258,0
2015-07-03,09:25:00,5.8,5.8,5.8,5.8,1028,0
2015-07-03,16:50:00,5.93,5.93,5.93,5.93,600,0
2015-07-06,10:10:00,5.93,5.93,5.93,5.93,25,0
2015-07-06,10:55:00,5.8,5.8,5.8,5.8,200,0
2015-07-06,11:20:00,5.78,5.78,5.78,5.78,200,0
2015-07-06,12:00:00,5.76,5.76,5.66,5.66,1735,0
2015-07-06,13:05:00,5.69,5.69,5.68,5.68,550,0
2015-07-06,15:45:00,5.78,5.78,5.78,5.78,30,0
2015-07-06,16:35:00,5.78,5.83,5.78,5.83,172,0
2015-07-06,16:45:00,5.83,5.88,5.83,5.88,300,0
2015-07-07,11:00:00,5.88,5.88,5.88,5.88,50,0
2015-07-07,16:30:00,5.75,5.75,5.71,5.71,400,0
2015-07-07,16:35:00,5.86,5.86,5.7,5.7,262,0
2015-07-07,16:40:00,5.86,5.92,5.86,5.92,200,0
2015-07-08,10:40:00,5.91,5.91,5.91,5.91,20,0
2015-07-09,11:05:00,5.88,5.88,5.88,5.88,50,0
2015-07-09,16:00:00,5.87,5.87,5.87,5.87,112,0
2015-07-10,09:15:00,5.82,5.82,5.8,5.8,300,0
2015-07-10,10:55:00,5.82,5.87,5.82,5.87,911,0
2015-07-10,13:20:00,5.82,5.82,5.82,5.82,20,0
2015-07-13,09:25:00,5.82,5.82,5.82,5.82,330,0
2015-07-13,09:30:00,5.82,5.88,5.82,5.88,205,0
2015-07-14,09:15:00,5.84,5.97,5.84,5.97,605,0
2015-07-14,16:50:00,5.95,5.95,5.95,5.95,90,0
2015-07-15,09:20:00,5.97,5.97,5.97,5.97,30,0
2015-07-15,09:55:00,5.93,5.93,5.93,5.93,50,0
2015-07-15,10:05:00,5.92,5.92,5.92,5.92,100,0
2015-07-15,10:45:00,5.92,5.92,5.92,5.92,1,0
2015-07-15,11:05:00,5.91,5.91,5.8,5.9,1124,0
2015-07-15,12:15:00,5.8,5.88,5.8,5.88,12,0
2015-07-15,13:20:00,5.88,5.88,5.88,5.88,109,0
2015-07-15,13:40:00,5.8,5.8,5.8,5.8,190,0
2015-07-15,14:05:00,5.8,5.8,5.8,5.8,350,0
2015-07-15,14:30:00,5.83,5.83,5.83,5.83,7,0
2015-07-15,16:50:00,5.8,5.94,5.8,5.94,1108,0
2015-07-16,09:10:00,5.95,5.95,5.95,5.95,250,0
2015-07-16,09:45:00,5.9,5.9,5.9,5.9,260,0
2015-07-16,10:55:00,5.88,5.88,5.88,5.88,100,0
2015-07-16,12:35:00,5.83,5.86,5.81,5.86,708,0
2015-07-16,12:50:00,5.82,5.88,5.82,5.88,600,0
2015-07-16,14:10:00,5.82,5.82,5.79,5.79,465,0
2015-07-16,14:35:00,5.86,5.86,5.86,5.86,39,0
2015-07-16,16:25:00,5.86,5.86,5.86,5.86,226,0
2015-07-16,16:30:00,5.8,5.85,5.8,5.85,238,0
2015-07-17,09:25:00,5.75,5.75,5.75,5.75,1610,0
2015-07-17,09:55:00,5.8,5.8,5.8,5.8,2000,0
2015-07-17,11:40:00,5.73,5.74,5.73,5.74,2300,0
2015-07-17,16:00:00,5.75,5.75,5.75,5.75,116,0
2015-07-20,09:05:00,5.6,5.6,5.37,5.59,2315,0
2015-07-20,09:25:00,5.49,5.59,5.46,5.59,507,0
2015-07-20,10:00:00,5.53,5.53,5.53,5.53,5,0
2015-07-20,10:10:00,5.48,5.48,5.48,5.48,124,0
2015-07-20,10:20:00,5.53,5.53,5.53,5.53,100,0
2015-07-20,11:00:00,5.48,5.48,5.48,5.48,173,0
2015-07-20,11:50:00,5.47,5.47,5.41,5.41,398,0
2015-07-20,12:10:00,5.45,5.48,5.45,5.48,252,0
2015-07-20,12:25:00,5.43,5.54,5.43,5.54,899,0
2015-07-20,12:55:00,5.45,5.45,5.43,5.43,305,0
2015-07-20,13:00:00,5.43,5.43,5.41,5.41,300,0
2015-07-20,13:35:00,5.47,5.47,5.47,5.47,95,0
2015-07-20,15:05:00,5.41,5.41,5.4,5.4,350,0
2015-07-20,15:30:00,5.47,5.47,5.47,5.47,26,0
2015-07-20,16:10:00,5.41,5.41,5.41,5.41,1175,0
2015-07-20,16:20:00,5.45,5.45,5.41,5.41,535,0
2015-07-20,16:25:00,5.47,5.57,5.47,5.57,629,0
2015-07-20,16:30:00,5.57,5.57,5.57,5.57,300,0
2015-07-20,16:45:00,5.56,5.58,5.56,5.58,1499,0
2015-07-20,16:50:00,5.7,5.7,5.7,5.7,3168,0
2015-07-21,13:55:00,5.62,5.62,5.62,5.62,100,0
2015-07-21,16:50:00,5.75,5.75,5.75,5.75,484,0
2015-07-22,12:05:00,5.76,5.76,5.76,5.76,30,0
2015-07-22,14:25:00,5.62,5.62,5.54,5.54,300,0
2015-07-22,15:30:00,5.5,5.5,5.5,5.5,1000,0
2015-07-22,15:35:00,5.5,5.5,5.5,5.5,550,0
2015-07-22,16:45:00,5.7,5.7,5.7,5.7,200,0
2015-07-23,09:35:00,5.7,5.7,5.7,5.7,100,0
2015-07-23,10:55:00,5.69,5.74,5.69,5.74,1100,0
2015-07-23,13:10:00,5.65,5.65,5.65,5.65,450,0
2015-07-23,14:10:00,5.7,5.7,5.7,5.7,350,0
2015-07-23,14:40:00,5.7,5.7,5.7,5.7,297,0
2015-07-24,09:15:00,5.74,5.74,5.74,5.74,173,0
2015-07-24,11:10:00,5.74,5.74,5.74,5.74,200,0
2015-07-24,11:15:00,5.76,5.8,5.76,5.8,2670,0
2015-07-24,16:50:00,5.71,5.71,5.71,5.71,350,0
2015-07-27,09:05:00,5.71,5.71,5.71,5.71,1383,0
2015-07-27,09:35:00,5.68,5.68,5.68,5.68,200,0
2015-07-27,09:55:00,5.68,5.68,5.68,5.68,325,0
2015-07-27,11:15:00,5.68,5.68,5.62,5.62,290,0
2015-07-27,16:35:00,5.65,5.65,5.65,5.65,2000,0
2015-07-27,16:50:00,5.69,5.71,5.69,5.71,500,0
2015-07-28,09:30:00,5.78,5.78,5.78,5.78,25,0
2015-07-28,12:25:00,5.78,5.78,5.78,5.78,100,0
2015-07-28,15:15:00,5.75,5.78,5.75,5.78,471,0
2015-07-28,16:50:00,5.71,5.71,5.71,5.71,54,0
2015-07-29,09:05:00,5.72,5.8,5.72,5.8,460,0
2015-07-29,09:15:00,5.8,5.8,5.8,5.8,60,0
2015-07-29,10:25:00,5.8,5.85,5.8,5.85,601,0
2015-07-29,10:40:00,5.85,5.85,5.85,5.85,999,0
2015-07-29,10:50:00,5.89,5.89,5.89,5.89,30,0
2015-07-29,11:10:00,5.85,5.89,5.77,5.89,165,0
2015-07-30,09:05:00,5.88,5.88,5.88,5.88,300,0
2015-07-30,09:10:00,5.8,5.8,5.8,5.8,25,0
2015-07-30,11:10:00,5.8,5.8,5.8,5.8,50,0
2015-07-30,15:45:00,5.8,5.8,5.8,5.8,175,0
2015-07-30,15:55:00,5.89,5.95,5.89,5.95,575,0
2015-07-31,09:55:00,5.95,5.95,5.95,5.95,200,0
2015-07-31,12:35:00,5.88,5.88,5.88,5.88,200,0
2015-07-31,15:55:00,5.9,5.9,5.9,5.9,100,0
2015-08-03,12:55:00,5.9,5.9,5.9,5.9,100,0
2015-08-03,14:40:00,5.9,5.9,5.9,5.9,100,0
2015-08-04,12:20:00,5.88,5.88,5.88,5.88,85,0
2015-08-04,16:45:00,5.86,5.86,5.86,5.86,130,0
2015-08-04,16:50:00,5.88,5.99,5.88,5.99,2170,0
2015-08-05,09:25:00,5.99,6.21,5.99,6.21,2360,0
2015-08-05,09:30:00,6.35,6.46,6.35,6.46,620,0
2015-08-05,11:10:00,6.3,6.3,6.3,6.3,100,0
2015-08-05,13:25:00,6.2,6.2,6.2,6.2,100,0
2015-08-05,13:35:00,6.16,6.16,6.14,6.14,2088,0
2015-08-05,13:50:00,6.14,6.14,6.01,6.01,2282,0
2015-08-05,14:15:00,5.9,5.9,5.83,5.83,300,0
2015-08-05,15:00:00,5.96,6,5.96,6,3000,0
2015-08-05,15:15:00,6,6,6,6,1000,0
2015-08-05,15:40:00,5.92,5.92,5.92,5.92,22,0
2015-08-05,16:40:00,5.99,6,5.99,6,1000,0
2015-08-05,16:50:00,6,6,6,6,2000,0
2015-08-06,09:25:00,5.94,5.94,5.88,5.88,1000,0
2015-08-06,10:15:00,5.88,5.88,5.88,5.88,2200,0
2015-08-06,14:05:00,5.95,5.95,5.95,5.95,1200,0
2015-08-06,14:35:00,5.98,5.98,5.98,5.98,850,0
2015-08-06,14:40:00,5.98,5.98,5.98,5.98,760,0
2015-08-06,14:55:00,5.98,5.98,5.98,5.98,1200,0
2015-08-06,16:05:00,5.98,5.99,5.98,5.99,3090,0
2015-08-07,09:05:00,6,6,6,6,100,0
2015-08-07,09:45:00,5.87,5.99,5.8,5.99,1730,0
2015-08-07,12:30:00,5.83,5.83,5.83,5.83,100,0
2015-08-07,13:05:00,5.81,5.81,5.81,5.81,5188,0
2015-08-07,13:10:00,5.82,5.82,5.81,5.81,4270,0
2015-08-07,13:15:00,5.81,5.81,5.81,5.81,42,0
2015-08-07,15:20:00,5.9,5.93,5.9,5.93,250,0
2015-08-07,15:35:00,5.81,5.81,5.81,5.81,125,0
2015-08-07,16:45:00,5.9,5.93,5.9,5.93,500,0
2015-08-07,16:50:00,5.93,5.93,5.93,5.93,2500,0
2015-08-10,10:05:00,5.93,5.93,5.93,5.93,15,0
2015-08-10,10:10:00,5.81,5.81,5.8,5.8,600,0
2015-08-10,11:15:00,5.8,5.8,5.8,5.8,210,0
2015-08-10,11:40:00,5.8,5.8,5.8,5.8,90,0
2015-08-10,15:15:00,5.79,5.79,5.76,5.76,222,0
2015-08-10,16:20:00,5.89,5.9,5.89,5.9,900,0
2015-08-10,16:45:00,5.8,5.8,5.8,5.8,1400,0
2015-08-10,16:50:00,5.8,5.93,5.8,5.93,3200,0
2015-08-11,10:15:00,5.8,5.8,5.8,5.8,125,0
2015-08-11,11:25:00,5.8,5.8,5.8,5.8,25,0
2015-08-11,11:35:00,5.81,5.81,5.81,5.81,300,0
2015-08-11,16:15:00,5.93,5.93,5.93,5.93,700,0
2015-08-11,16:50:00,5.93,5.93,5.93,5.93,300,0
2015-08-12,13:20:00,5.88,5.88,5.88,5.88,65,0
2015-08-12,16:10:00,5.81,5.81,5.81,5.81,1200,0
2015-08-12,16:35:00,5.88,5.88,5.88,5.88,461,0
2015-08-12,16:50:00,5.96,5.96,5.96,5.96,1375,0
2015-08-13,10:35:00,6,6,6,6,25,0
2015-08-13,13:40:00,5.85,5.85,5.85,5.85,1500,0
2015-08-13,14:15:00,5.84,5.84,5.8,5.8,1200,0
2015-08-13,14:30:00,5.85,5.9,5.85,5.9,302,0
2015-08-13,16:50:00,5.9,5.9,5.9,5.9,2000,0
2015-08-14,09:15:00,5.8,5.8,5.8,5.8,50,0
2015-08-14,10:05:00,5.81,5.81,5.81,5.81,130,0
2015-08-14,11:40:00,5.81,5.81,5.81,5.81,1370,0
2015-08-14,12:05:00,5.8,5.8,5.8,5.8,640,0
2015-08-14,12:25:00,5.78,5.78,5.78,5.78,1000,0
2015-08-14,14:20:00,5.8,5.8,5.8,5.8,130,0
2015-08-14,16:50:00,5.72,5.72,5.72,5.72,752,0
2015-08-17,11:50:00,5.72,5.72,5.72,5.72,70,0
2015-08-17,12:00:00,5.9,5.9,5.9,5.9,7,0
2015-08-17,15:30:00,5.9,5.9,5.9,5.9,100,0
2015-08-18,09:05:00,5.68,5.96,5.68,5.96,126,0
2015-08-18,10:20:00,5.98,5.98,5.98,5.98,1,0
2015-08-18,13:30:00,5.97,5.97,5.97,5.97,1200,0
2015-08-18,16:50:00,5.71,5.71,5.71,5.71,648,0
2015-08-19,11:35:00,5.72,5.72,5.72,5.72,30,0
2015-08-19,16:50:00,5.72,5.72,5.72,5.72,34,0
2015-08-20,11:40:00,5.72,5.72,5.72,5.72,5405,0
2015-08-20,14:40:00,5.73,5.73,5.72,5.72,1000,0
2015-08-20,15:05:00,5.72,5.72,5.72,5.72,130,0
2015-08-20,16:10:00,5.72,5.72,5.72,5.72,1000,0
2015-08-20,16:30:00,5.85,5.85,5.85,5.85,650,0
2015-08-20,16:50:00,5.94,5.94,5.94,5.94,277,0
2015-08-21,10:25:00,5.92,5.92,5.92,5.92,15,0
2015-08-24,09:05:00,5.77,5.77,5.77,5.77,40,0
2015-08-24,09:10:00,5.64,5.64,5.38,5.38,1069,0
2015-08-24,09:25:00,5.5,5.5,5.5,5.5,200,0
2015-08-24,10:10:00,5.5,5.5,5.5,5.5,160,0
2015-08-24,10:50:00,5.51,5.51,5.51,5.51,200,0
2015-08-24,10:55:00,5.63,5.75,5.63,5.75,392,0
2015-08-24,11:20:00,5.7,5.7,5.7,5.7,200,0
2015-08-24,12:45:00,5.7,5.7,5.7,5.7,143,0
2015-08-24,13:30:00,5.51,5.51,5.51,5.51,100,0
2015-08-24,13:40:00,5.51,5.51,5.51,5.51,100,0
2015-08-24,14:25:00,5.5,5.5,5.4,5.4,4135,0
2015-08-24,14:40:00,5.51,5.51,5.4,5.4,240,0
2015-08-24,15:20:00,5.4,5.4,5.4,5.4,200,0
2015-08-24,15:25:00,5.4,5.4,5.4,5.4,800,0
2015-08-24,16:15:00,5.4,5.4,5.4,5.4,1000,0
2015-08-24,16:25:00,5.4,5.4,5.4,5.4,1000,0
2015-08-24,16:35:00,5.4,5.4,5.4,5.4,300,0
2015-08-24,16:40:00,5.5,5.5,5.5,5.5,1000,0
2015-08-24,16:45:00,5.5,5.5,5.5,5.5,1000,0
2015-08-24,16:50:00,5.5,5.5,5.5,5.5,5000,0
2015-08-25,09:05:00,5.5,5.5,5.5,5.5,890,0
2015-08-25,09:25:00,5.5,5.5,5.5,5.5,111,0
2015-08-25,09:30:00,5.4,5.4,5.4,5.4,370,0
2015-08-25,09:35:00,5.41,5.41,5.41,5.41,80,0
2015-08-25,09:55:00,5.43,5.43,5.43,5.43,778,0
2015-08-25,10:50:00,5.45,5.45,5.45,5.45,111,0
2015-08-25,11:00:00,5.45,5.45,5.45,5.45,1181,0
2015-08-25,11:15:00,5.42,5.42,5.42,5.42,195,0
2015-08-25,11:30:00,5.45,5.45,5.45,5.45,200,0
2015-08-25,12:35:00,5.42,5.42,5.41,5.41,219,0
2015-08-25,12:50:00,5.44,5.44,5.44,5.44,110,0
2015-08-25,12:55:00,5.65,5.65,5.65,5.65,10,0
2015-08-25,16:50:00,5.5,5.5,5.5,5.5,1060,0
2015-08-26,09:05:00,5.22,5.22,5.2,5.2,3830,0
2015-08-26,09:40:00,5.18,5.18,5.18,5.18,100,0
2015-08-26,09:55:00,5.18,5.18,5.18,5.18,100,0
2015-08-26,10:15:00,5.2,5.29,5.2,5.28,1100,0
2015-08-26,13:15:00,5.19,5.19,5.18,5.18,260,0
2015-08-26,16:00:00,5.18,5.18,5.18,5.18,200,0
2015-08-26,16:20:00,5.15,5.15,5.07,5.07,607,0
2015-08-26,16:25:00,5.15,5.29,5.15,5.29,3726,0
2015-08-26,16:50:00,5.29,5.29,5.29,5.29,2000,0
2015-08-27,09:35:00,5.17,5.29,5.1,5.29,1849,0
2015-08-27,09:40:00,5.3,5.34,5.3,5.34,480,0
2015-08-27,09:50:00,5.29,5.29,5.29,5.29,101,0
2015-08-27,16:50:00,5.29,5.29,5.29,5.29,1160,0
2015-08-28,10:30:00,5.28,5.28,5.28,5.28,10,0
2015-08-31,09:05:00,5.22,5.22,5.22,5.22,100,0
2015-08-31,09:20:00,5.22,5.22,5.17,5.17,250,0
2015-09-01,09:05:00,5.1,5.1,5.03,5.03,600,0
2015-09-01,09:15:00,5.05,5.05,5.02,5.02,600,0
2015-09-01,09:20:00,5,5.07,4.99,5.07,3580,0
2015-09-01,09:40:00,5,5,5,5,1000,0
2015-09-01,09:55:00,5.1,5.1,5.1,5.1,101,0
2015-09-01,10:05:00,5.1,5.14,5.1,5.14,100,0
2015-09-01,12:40:00,5.06,5.06,5.06,5.06,100,0
2015-09-01,16:10:00,5.09,5.09,5.09,5.09,1500,0
2015-09-01,16:15:00,5.04,5.04,5.04,5.04,1,0
2015-09-01,16:50:00,5.1,5.14,5.1,5.14,2500,0
2015-09-02,09:15:00,5.13,5.13,5.13,5.13,100,0
2015-09-02,09:35:00,5.1,5.1,5.1,5.1,75,0
2015-09-02,11:30:00,5.04,5.04,5,5,809,0
2015-09-02,11:35:00,5.01,5.01,5.01,5.01,400,0
2015-09-02,16:45:00,5.08,5.13,5.08,5.13,600,0
2015-09-02,16:50:00,5.13,5.14,5.13,5.14,1077,0
2015-09-03,12:30:00,5.14,5.14,5.14,5.14,100,0
2015-09-03,14:40:00,5.07,5.07,5.07,5.07,25,0
2015-09-03,15:15:00,5.07,5.07,5.07,5.07,175,0
2015-09-03,16:00:00,5.13,5.21,5.13,5.21,2996,0
2015-09-03,16:40:00,5.2,5.25,5.2,5.25,120,0
2015-09-04,13:55:00,5.24,5.24,5.24,5.24,183,0
2015-09-04,14:30:00,5.27,5.3,5.27,5.3,246,0
2015-09-04,15:45:00,5.2,5.28,5.2,5.28,237,0
2015-09-04,16:50:00,5.28,5.28,5.28,5.28,1000,0
2015-09-07,10:30:00,5.29,5.29,5.29,5.29,25,0
2015-09-07,11:15:00,5.16,5.16,5.15,5.16,1157,0
2015-09-07,16:50:00,5.17,5.17,5.17,5.17,1000,0
2015-09-08,09:50:00,5.15,5.15,5.15,5.15,100,0
2015-09-08,10:50:00,5.11,5.11,5.08,5.08,330,0
2015-09-08,11:10:00,5.08,5.08,5.08,5.08,187,0
2015-09-08,11:30:00,5.1,5.1,5.1,5.1,156281,0
2015-09-08,11:50:00,5.2,5.2,5.2,5.2,450,0
2015-09-08,16:50:00,5.2,5.2,5.2,5.2,317,0
2015-09-09,10:25:00,5.16,5.16,5.16,5.16,70,0
2015-09-09,13:10:00,5.22,5.22,5.22,5.22,2,0
2015-09-09,15:55:00,5.22,5.29,5.2,5.29,2131,0
2015-09-09,16:50:00,5.2,5.2,5.2,5.2,650,0
2015-09-10,09:35:00,5.26,5.26,5.26,5.26,35,0
2015-09-10,15:25:00,5.26,5.35,5.26,5.35,1095,0
2015-09-10,15:30:00,5.35,5.35,5.35,5.35,200,0
2015-09-10,15:35:00,5.35,5.35,5.35,5.35,1400,0
2015-09-10,15:55:00,5.35,5.35,5.35,5.35,2000,0
2015-09-10,16:45:00,5.35,5.35,5.35,5.35,200,0
2015-09-10,16:50:00,5.3,5.3,5.3,5.3,489,0
2015-09-11,09:10:00,5.35,5.35,5.35,5.35,1300,0
2015-09-11,15:30:00,5.35,5.35,5.35,5.35,550,0
2015-09-11,16:50:00,5.3,5.3,5.3,5.3,400,0
2015-09-14,10:50:00,5.35,5.35,5.35,5.35,20,0
2015-09-14,11:20:00,5.35,5.35,5.35,5.35,20,0
2015-09-14,11:25:00,5.35,5.35,5.35,5.35,60,0
2015-09-14,12:40:00,5.35,5.35,5.35,5.35,1000,0
2015-09-14,13:05:00,5.35,5.35,5.35,5.35,100,0
2015-09-14,16:20:00,5.35,5.35,5.35,5.35,9439,0
2015-09-14,16:25:00,5.35,5.35,5.35,5.35,1000,0
2015-09-14,16:30:00,5.35,5.35,5.35,5.35,750,0
2015-09-14,16:40:00,5.35,5.35,5.31,5.31,250,0
2015-09-14,16:50:00,5.3,5.3,5.3,5.3,470,0
2015-09-15,09:05:00,5.35,5.35,5.26,5.26,204,0
2015-09-15,09:10:00,5.35,5.42,5.26,5.26,12,0
2015-09-15,09:15:00,5.42,5.42,5.42,5.42,1,0
2015-09-15,09:45:00,5.26,5.26,5.26,5.26,5,0
2015-09-15,09:50:00,5.42,5.42,5.42,5.42,1,0
2015-09-15,12:30:00,5.39,5.39,5.39,5.39,180,0
2015-09-15,15:55:00,5.34,5.34,5.34,5.34,2,0
2015-09-15,16:50:00,5.34,5.34,5.34,5.34,601,0
2015-09-16,09:05:00,5.42,5.42,5.42,5.42,50,0
2015-09-16,12:10:00,5.4,5.4,5.4,5.4,700,0
2015-09-16,13:00:00,5.4,5.4,5.4,5.4,1000,0
2015-09-16,13:10:00,5.4,5.4,5.4,5.4,260,0
2015-09-16,13:40:00,5.4,5.4,5.4,5.4,245,0
2015-09-16,15:50:00,5.4,5.4,5.4,5.4,50,0
2015-09-17,11:05:00,5.38,5.38,5.38,5.38,50,0
2015-09-17,13:05:00,5.38,5.39,5.38,5.39,400,0
2015-09-18,10:25:00,5.42,5.42,5.42,5.42,900,0
2015-09-18,11:25:00,5.36,5.36,5.36,5.36,115,0
2015-09-18,12:25:00,5.36,5.36,5.36,5.36,43,0
2015-09-21,09:10:00,5.32,5.32,5.32,5.32,54,0
2015-09-21,09:15:00,5.4,5.4,5.4,5.4,546,0
2015-09-21,16:50:00,5.36,5.36,5.35,5.35,500,0
2015-09-22,10:25:00,5.34,5.34,5.34,5.34,56,0
2015-09-22,12:50:00,5.34,5.34,5.34,5.34,1030,0
2015-09-22,15:00:00,5.35,5.35,5.35,5.35,240,0
2015-09-23,09:05:00,5.29,5.29,5.29,5.29,32,0
2015-09-23,13:40:00,5.4,5.4,5.4,5.4,12742,0
2015-09-24,09:05:00,5.29,5.29,5.29,5.29,150,0
2015-09-24,13:35:00,5.29,5.29,5.29,5.29,50,0
2015-09-25,09:15:00,5.34,5.34,5.34,5.34,100,0
2015-09-25,09:20:00,5.3,5.3,5.3,5.3,150,0
2015-09-25,11:00:00,5.25,5.25,5.25,5.25,200,0
2015-09-25,11:20:00,5.25,5.25,5.25,5.25,100,0
2015-09-25,11:30:00,5.17,5.17,5.17,5.17,500,0
2015-09-25,11:35:00,5.16,5.16,5.14,5.14,1485,0
2015-09-25,11:45:00,5.11,5.11,5.11,5.11,1016,0
2015-09-25,14:15:00,5.11,5.11,5.1,5.1,440,0
2015-09-25,16:50:00,5.18,5.2,5.18,5.2,2000,0
2015-09-28,09:45:00,5.2,5.2,5.2,5.2,100,0
2015-09-28,12:00:00,5.15,5.15,5.15,5.15,380,0
2015-09-28,16:30:00,5.2,5.2,5.2,5.2,100,0
2015-09-28,16:50:00,5.18,5.18,5.18,5.18,500,0
2015-09-29,11:30:00,5.23,5.23,5.23,5.23,100,0
2015-09-29,15:55:00,5.12,5.12,5.1,5.1,1179,0
2015-09-29,16:10:00,5.1,5.1,5.1,5.1,2321,0
2015-09-29,16:45:00,5.06,5.06,5.04,5.04,394,0
2015-09-30,09:20:00,5.04,5.04,5.04,5.04,6,0
2015-10-01,09:10:00,5.09,5.09,5.09,5.09,50,0
2015-10-01,10:25:00,5.05,5.05,5.05,5.05,220,0
2015-10-01,10:45:00,5.02,5.02,5.02,5.02,1,0
2015-10-01,10:50:00,5.02,5.02,5,5,499,0
2015-10-01,11:00:00,5,5,5,5,12,0
2015-10-01,11:05:00,4.96,4.96,4.95,4.95,1870,0
2015-10-01,11:10:00,4.93,4.93,4.93,4.93,200,0
2015-10-01,13:00:00,4.94,4.95,4.94,4.95,866,0
2015-10-01,13:20:00,4.95,4.95,4.95,4.95,175,0
2015-10-01,16:50:00,4.87,4.87,4.6,4.61,14381,0
2015-10-02,09:05:00,4.6,4.6,4.6,4.6,327,0
2015-10-02,09:15:00,4.43,4.43,4.43,4.43,1700,0
2015-10-02,09:25:00,4.43,4.43,4.43,4.43,1751,0
2015-10-02,09:30:00,4.46,4.58,4.35,4.35,5506,0
2015-10-02,09:35:00,4.35,4.5,4.35,4.5,2250,0
2015-10-02,09:40:00,4.67,4.74,4.67,4.74,500,0
2015-10-02,10:00:00,4.7,4.7,4.53,4.53,1395,0
2015-10-02,10:10:00,4.52,4.52,4.49,4.49,2000,0
2015-10-02,14:05:00,4.5,4.5,4.5,4.5,100,0
2015-10-02,14:30:00,4.5,4.5,4.5,4.5,333,0
2015-10-02,14:35:00,4.49,4.49,4.49,4.49,415,0
2015-10-02,14:50:00,4.49,4.58,4.49,4.58,255,0
2015-10-02,16:30:00,4.55,4.55,4.55,4.55,160,0
2015-10-02,16:40:00,4.58,4.58,4.58,4.58,300,0
2015-10-02,16:50:00,4.72,4.72,4.72,4.72,2400,0
2015-10-05,09:05:00,4.74,4.74,4.74,4.74,81,0
2015-10-05,09:10:00,4.74,4.74,4.74,4.74,344,0
2015-10-05,12:35:00,4.75,4.75,4.75,4.75,400,0
2015-10-05,15:35:00,4.75,4.75,4.75,4.75,100,0
2015-10-05,16:25:00,4.7,4.7,4.7,4.7,300,0
2015-10-06,09:45:00,4.75,4.75,4.75,4.75,50,0
2015-10-06,09:55:00,4.74,4.83,4.74,4.83,305,0
2015-10-06,10:30:00,4.83,4.83,4.83,4.83,98,0
2015-10-06,10:35:00,4.87,4.87,4.87,4.87,30,0
2015-10-06,11:25:00,4.83,4.83,4.83,4.83,2,0
2015-10-06,11:50:00,4.83,4.87,4.83,4.87,115,0
2015-10-06,12:10:00,4.89,4.9,4.89,4.9,280,0
2015-10-06,15:20:00,4.99,4.99,4.99,4.99,50,0
2015-10-06,15:35:00,4.99,4.99,4.99,4.99,1800,0
2015-10-06,15:40:00,5.05,5.12,5.05,5.12,101,0
2015-10-07,11:50:00,5.05,5.05,5.05,5.05,100,0
2015-10-08,16:50:00,5.08,5.08,5.08,5.08,100,0
2015-10-09,13:10:00,5,5,5,5,270,0
2015-10-09,14:00:00,4.9,4.9,4.82,4.82,333,0
2015-10-09,15:20:00,5,5.01,5,5.01,1900,0
2015-10-09,16:30:00,5.01,5.01,5.01,5.01,100,0
2015-10-12,09:25:00,4.9,4.9,4.9,4.9,280,0
2015-10-12,13:15:00,4.92,4.92,4.92,4.92,1201,0
2015-10-13,09:05:00,4.9,4.9,4.9,4.9,100,0
2015-10-13,15:55:00,4.82,4.88,4.77,4.88,234,0
2015-10-14,09:40:00,4.81,4.81,4.77,4.77,443,0
2015-10-14,16:50:00,4.9,4.9,4.9,4.9,500,0
2015-10-15,09:10:00,4.8,4.8,4.8,4.8,1000,0
2015-10-15,10:00:00,4.9,4.9,4.9,4.9,100,0
2015-10-15,12:50:00,4.8,4.8,4.8,4.8,5,0
2015-10-15,16:50:00,4.8,4.8,4.8,4.8,1000,0
2015-10-16,09:05:00,4.78,4.78,4.75,4.75,200,0
2015-10-16,09:45:00,4.7,4.7,4.68,4.68,1700,0
2015-10-16,11:30:00,4.75,4.75,4.75,4.75,100,0
2015-10-16,13:35:00,4.8,4.8,4.8,4.8,200,0
2015-10-19,10:10:00,4.8,4.8,4.8,4.8,35,0
2015-10-19,13:20:00,4.79,4.8,4.79,4.8,210,0
2015-10-20,09:45:00,4.84,4.84,4.84,4.84,100,0
2015-10-20,16:50:00,4.78,4.78,4.78,4.78,100,0
2015-10-21,10:35:00,4.69,4.69,4.69,4.69,100,0
2015-10-22,09:45:00,4.8,4.8,4.8,4.8,100,0
2015-10-22,16:50:00,4.79,4.79,4.79,4.79,100,0
2015-10-23,09:35:00,4.84,4.84,4.84,4.84,100,0
2015-10-26,10:40:00,4.8,4.8,4.8,4.8,50,0
2015-10-26,12:25:00,4.79,4.8,4.79,4.8,700,0
2015-10-26,14:05:00,4.8,4.8,4.8,4.8,750,0
2015-10-27,09:45:00,4.8,4.8,4.8,4.8,100,0
2015-10-27,16:50:00,4.79,4.79,4.79,4.79,100,0
2015-10-28,09:30:00,4.83,4.83,4.83,4.83,25,0
2015-10-28,11:40:00,4.74,4.74,4.74,4.74,84,0
2015-10-29,10:05:00,4.74,4.74,4.74,4.74,100,0
2015-10-29,13:15:00,4.74,4.74,4.74,4.74,267,0
2015-10-29,14:55:00,4.7,4.7,4.7,4.7,400,0
2015-10-30,14:55:00,4.65,4.65,4.65,4.65,70,0
2015-10-30,16:50:00,4.78,4.78,4.78,4.78,500,0
2015-11-02,09:05:00,4.83,4.83,4.83,4.83,50,0
2015-11-02,10:10:00,4.7,4.7,4.7,4.7,800,0
2015-11-02,12:10:00,4.7,4.7,4.7,4.7,200,0
2015-11-03,14:10:00,4.7,4.7,4.7,4.7,100,0
2015-11-04,11:00:00,4.7,4.7,4.7,4.7,200,0
2015-11-04,11:25:00,4.7,4.7,4.7,4.7,100,0
2015-11-04,13:10:00,4.66,4.66,4.65,4.65,200,0
2015-11-04,13:15:00,4.7,4.7,4.7,4.7,30,0
2015-11-05,10:20:00,4.77,4.77,4.77,4.77,50,0
2015-11-06,09:55:00,4.73,4.78,4.73,4.78,2337,0
2015-11-06,10:05:00,4.77,4.78,4.77,4.78,663,0
2015-11-06,10:15:00,4.7,4.7,4.7,4.7,700,0
2015-11-06,10:50:00,4.72,4.74,4.72,4.74,1000,0
2015-11-09,11:05:00,4.74,4.74,4.74,4.74,150,0
2015-11-09,11:40:00,4.7,4.7,4.67,4.67,400,0
2015-11-09,13:35:00,4.72,4.74,4.72,4.74,600,0
2015-11-09,13:40:00,4.74,4.75,4.74,4.75,1400,0
2015-11-09,13:45:00,4.75,4.75,4.75,4.75,50,0
2015-11-09,13:50:00,4.77,4.78,4.77,4.78,1250,0
2015-11-09,14:05:00,4.78,4.78,4.75,4.75,1250,0
2015-11-09,14:20:00,4.7,4.7,4.7,4.7,207,0
2015-11-09,16:50:00,4.7,4.7,4.7,4.7,207,0
2015-11-10,09:15:00,4.8,4.8,4.8,4.8,50,0
2015-11-10,14:10:00,4.8,4.8,4.8,4.8,100,0
2015-11-10,16:45:00,4.7,4.7,4.57,4.57,2425,0
2015-11-10,16:50:00,4.8,4.8,4.8,4.8,300,0
2015-11-12,11:10:00,4.8,4.8,4.8,4.8,50,0
2015-11-13,09:05:00,4.6,4.6,4.58,4.58,594,0
2015-11-13,09:10:00,4.6,4.6,4.6,4.6,195,0
2015-11-13,09:35:00,4.53,4.53,4.52,4.52,350,0
2015-11-13,11:15:00,4.59,4.6,4.59,4.6,310,0
2015-11-13,11:45:00,4.55,4.55,4.55,4.55,150,0
2015-11-13,11:55:00,4.52,4.58,4.52,4.58,302,0
2015-11-13,15:55:00,4.51,4.51,4.5,4.5,164,0
2015-11-16,09:05:00,4.48,4.48,4.47,4.47,200,0
2015-11-16,12:15:00,4.4,4.4,4.37,4.37,400,0
2015-11-16,13:10:00,4.37,4.37,4.37,4.37,1109,0
2015-11-16,13:25:00,4.36,4.36,4.36,4.36,113,0
2015-11-16,14:25:00,4.35,4.35,4.35,4.35,200,0
2015-11-16,15:25:00,4.35,4.35,4.35,4.35,300,0
2015-11-16,16:05:00,4.28,4.28,4.28,4.28,584,0
2015-11-16,16:50:00,4.36,4.36,4.36,4.36,2000,0
2015-11-17,10:45:00,4.28,4.28,4.2,4.2,2535,0
2015-11-17,11:45:00,4.21,4.32,4.21,4.32,1850,0
2015-11-17,16:50:00,4.32,4.32,4.32,4.32,896,0
2015-11-18,12:05:00,4.3,4.32,4.3,4.32,425,0
2015-11-18,12:10:00,4.32,4.32,4.32,4.32,70,0
2015-11-18,14:25:00,4.22,4.22,4.22,4.22,10,0
2015-11-18,16:50:00,4.28,4.32,4.28,4.31,500,0
2015-11-19,11:30:00,4.22,4.22,4.22,4.22,73,0
2015-11-19,11:35:00,4.21,4.21,4.21,4.21,127,0
2015-11-20,10:00:00,4.17,4.17,4.17,4.17,30,0
2015-11-20,10:40:00,4.15,4.15,4.15,4.15,600,0
2015-11-20,10:50:00,4.13,4.25,4.13,4.25,360,0
2015-11-20,12:50:00,4.2,4.2,4.2,4.2,100,0
2015-11-20,13:50:00,4.25,4.25,4.25,4.25,11,0
2015-11-23,09:20:00,4.25,4.31,4.25,4.31,180,0
2015-11-24,09:10:00,4.33,4.33,4.33,4.33,22,0
2015-11-24,09:15:00,4.29,4.4,4.29,4.4,205,0
2015-11-24,10:40:00,4.32,4.32,4.32,4.32,1,0
2015-11-24,11:00:00,4.2,4.2,4.2,4.2,100,0
2015-11-24,11:05:00,4.32,4.32,4.17,4.32,123,0
2015-11-25,09:10:00,4.4,4.4,4.4,4.4,5,0
2015-11-25,11:40:00,4.15,4.15,4.15,4.15,84,0
2015-11-25,11:50:00,4.3,4.3,4.3,4.3,7,0
2015-11-25,15:50:00,4.3,4.3,4.3,4.3,393,0
2015-11-25,15:55:00,4.3,4.3,4.25,4.3,1840,0
2015-11-25,16:00:00,4.3,4.3,4.3,4.3,7,0
2015-11-25,16:10:00,4.25,4.25,4.25,4.25,1,0
2015-11-26,09:15:00,4.23,4.23,4.23,4.23,1,0
2015-11-26,09:25:00,4.24,4.24,4.24,4.24,7,0
2015-11-26,15:50:00,4.31,4.31,4.31,4.31,55,0
2015-11-27,09:10:00,4.27,4.27,4.27,4.27,150,0
2015-11-27,09:15:00,4.27,4.27,4.27,4.27,50,0
2015-11-27,09:30:00,4.27,4.27,4.27,4.27,200,0
2015-11-30,09:20:00,4.27,4.27,4.27,4.27,250,0
2015-11-30,12:35:00,4.27,4.27,4.27,4.27,220,0
2015-11-30,12:40:00,4.26,4.26,4.26,4.26,750,0
2015-11-30,13:15:00,4.26,4.26,4.26,4.26,1600,0
2015-11-30,16:50:00,4.26,4.26,4.26,4.26,100,0
2015-12-01,09:05:00,4.26,4.26,4.26,4.26,50,0
2015-12-01,12:45:00,4.26,4.26,4.25,4.25,2000,0
2015-12-01,13:00:00,4.25,4.25,4.19,4.19,5000,0
2015-12-01,13:05:00,4.19,4.19,4.18,4.18,4000,0
2015-12-01,13:35:00,4.18,4.18,4.17,4.17,200,0
2015-12-01,13:50:00,4.28,4.28,4.28,4.28,1760,0
2015-12-01,14:10:00,4.3,4.3,4.3,4.3,1302,0
2015-12-01,14:45:00,4.31,4.31,4.3,4.3,5914,0
2015-12-02,09:05:00,4.3,4.33,4.3,4.33,3731,0
2015-12-02,09:20:00,4.33,4.33,4.33,4.33,2558,0
2015-12-02,09:25:00,4.35,4.36,4.35,4.36,250,0
2015-12-02,15:25:00,4.3,4.3,4.3,4.3,469,0
2015-12-02,16:00:00,4.27,4.27,4.27,4.27,340,0
2015-12-02,16:50:00,4.29,4.29,4.29,4.29,22,0
2015-12-03,09:10:00,4.26,4.29,4.26,4.29,229,0
2015-12-03,15:10:00,4.26,4.26,4.26,4.26,2800,0
2015-12-03,16:40:00,4.26,4.26,4.26,4.26,50,0
2015-12-04,09:05:00,4.21,4.21,4.2,4.2,1501,0
2015-12-04,09:25:00,4.2,4.2,4.2,4.2,400,0
2015-12-04,09:30:00,4.2,4.2,4.2,4.2,1117,0
2015-12-04,09:40:00,4.2,4.2,4.2,4.2,1442,0
2015-12-04,16:15:00,4.17,4.17,4.12,4.12,1365,0
2015-12-04,16:50:00,4.28,4.28,4.28,4.28,300,0
