Date,Open,High,Low,Close,Volume,OpenInt
20081218,7.3322,7.3322,6.4301,6.4301,12192,0
20081219,6.4205,6.9963,6.4109,6.9963,12973,0
20081222,6.9963,6.9963,6.6701,6.7468,11738,0
20081223,6.7085,6.7085,6.7085,6.7085,214,0
20081229,6.718,6.8716,6.718,6.862,3900,0
20081230,6.8716,6.9772,6.718,6.862,7749,0
20081231,6.9579,6.9963,6.9004,6.9004,4845,0
20090105,7.5818,7.5818,6.7468,6.91,2448,0
20090106,6.7564,7.3419,6.718,7.3419,13823,0
20090107,7.1979,7.6777,7.006,7.006,45388,0
20090108,6.766,6.8716,6.7468,6.8716,4255,0
20090112,6.8236,7.3131,6.8236,6.9004,1916,0
20090113,6.7372,7.2843,6.7372,7.2843,3416,0
20090114,7.2843,7.4762,6.9579,7.3803,17408,0
20090115,7.1019,7.1019,7.1019,7.1019,675,0
20090116,6.9292,7.2747,6.9292,7.006,1248,0
20090119,7.4282,7.4282,7.4282,7.4282,1,0
20090120,6.91,7.1403,6.7756,7.1403,916,0
20090121,7.1498,7.1498,6.862,6.862,313,0
20090122,6.8139,7.006,6.8139,7.006,378,0
20090123,7.1307,7.1307,6.7276,7.1019,367,0
20090126,7.1307,7.1307,6.6029,6.6988,3318,0
20090127,6.6988,6.6988,6.5549,6.6604,1191,0
20090128,6.6988,6.6988,6.6988,6.6988,10,0
20090129,6.622,6.622,6.622,6.622,1101,0
20090130,6.5452,6.5452,6.4685,6.5261,2012,0
20090202,6.622,6.622,5.6719,6.0366,7350,0
20090203,6.0462,6.0462,5.7583,5.7583,1076,0
20090204,5.7583,5.7583,5.4704,5.5856,2807,0
20090205,5.1825,5.6623,4.8945,5.5088,14703,0
20090206,5.5088,6.6124,5.5088,5.8831,3958,0
20090209,5.5663,5.9215,5.5663,5.9215,3970,0
20090210,6.0655,6.267,5.7583,6.267,10931,0
20090211,6.4109,6.6124,6.2381,6.2765,7666,0
20090212,6.4301,6.4301,6.4301,6.4301,336,0
20090213,6.4301,6.4973,6.4301,6.4973,456,0
20090216,6.3342,6.4301,5.7583,5.7583,3439,0
20090217,5.5663,5.5663,5.2017,5.2017,5429,0
20090218,5.0769,5.0769,4.9713,5.0673,4925,0
20090219,5.192,5.192,5.1729,5.1729,972,0
20090220,5.1729,5.1729,5.1729,5.1729,10,0
20090223,4.9426,5.1537,4.9426,5.1537,1344,0
20090224,5.1729,5.6623,4.6642,5.6623,17173,0
20090225,5.5088,6.1422,5.5088,5.7583,3005,0
20090226,5.8063,6.0366,5.8063,6.0366,7555,0
20090227,5.7583,5.9502,5.7583,5.9502,1436,0
20090302,5.8255,5.8255,5.7967,5.7967,659,0
20090303,5.5663,5.6815,5.4607,5.5472,12952,0
20090304,5.4128,5.7487,5.4128,5.7487,907,0
20090305,5.7871,5.9983,5.6623,5.9983,2142,0
20090306,5.8543,5.9983,5.4704,5.9983,14385,0
20090309,5.6623,5.6623,5.6623,5.6623,1,0
20090310,5.6719,5.6719,5.6719,5.6719,396,0
20090311,5.6719,5.7583,5.6719,5.7583,6,0
20090312,5.6719,5.7583,5.6719,5.7583,645,0
20090313,5.6623,6.5165,5.6623,6.5165,6354,0
20090316,5.8734,6.2861,5.8734,6.1422,2134,0
20090317,6.5165,6.5165,6.3342,6.3342,395,0
20090318,6.5165,6.5165,6.4493,6.4781,1064,0
20090319,6.4589,6.622,6.4589,6.622,105,0
20090320,6.6988,6.6988,6.6988,6.6988,31,0
20090323,6.766,7.1019,6.6701,7.1019,1414,0
20090324,7.1307,7.1691,7.1019,7.1019,911,0
20090325,7.1979,7.1979,7.0539,7.0539,347,0
20090326,7.3898,7.3898,7.3898,7.3898,2,0
20090327,7.3898,7.3898,7.2938,7.2938,54,0
20090330,7.2938,7.2938,7.2938,7.2938,2,0
20090331,7.2938,7.2938,7.2938,7.2938,2,0
20090401,7.2938,7.2938,6.91,6.91,2,0
20090402,7.006,7.3898,7.006,7.3898,378,0
20090403,7.2938,7.3898,7.006,7.3898,2388,0
20090406,7.3898,7.5625,7.3898,7.4187,3923,0
20090407,7.4858,7.5818,7.4666,7.4858,3568,0
20090408,7.4858,7.5818,7.4282,7.5818,6428,0
20090409,7.6297,7.9656,7.5818,7.9656,9850,0
20090414,7.9656,7.9656,7.6297,7.6297,3903,0
20090415,7.5818,7.6681,7.5818,7.6681,3787,0
20090416,7.5146,7.9656,7.5146,7.9561,6655,0
20090417,7.7641,7.9656,7.7641,7.9656,307,0
20090420,7.9177,7.9177,7.4858,7.5338,2652,0
20090421,7.5434,7.7737,7.5434,7.5818,697,0
20090422,7.5818,8.2056,7.5818,8.2056,7351,0
20090423,8.2536,8.743,8.2536,8.6951,8285,0
20090424,8.8198,9.0022,8.6951,8.9734,5392,0
20090427,9.0213,9.0213,8.2536,8.6854,2646,0
20090428,9.0597,11.891,9.0597,11.036,33337,0
20090429,12.362,12.362,11.036,11.487,45610,0
20090430,11.507,11.507,11.036,11.325,15483,0
20090504,11.507,11.507,11.133,11.325,8924,0
20090505,11.526,11.698,11.517,11.517,4196,0
20090506,11.517,11.517,11.469,11.469,3599,0
20090507,11.478,11.478,11.036,11.325,8821,0
20090508,11.046,11.209,11.046,11.172,8036,0
20090511,11.315,11.613,11.315,11.613,19996,0
20090512,11.613,11.881,11.517,11.517,2738,0
20090513,11.517,11.517,10.989,10.989,6410,0
20090514,10.941,10.941,10.941,10.941,104,0
20090515,11.046,11.046,10.652,10.652,3744,0
20090518,10.893,11.315,10.893,11.036,1747,0
20090519,11.325,11.363,11.325,11.325,1563,0
20090520,11.517,11.517,11.487,11.517,8593,0
20090521,11.229,11.603,11.046,11.593,28134,0
20090522,11.593,11.613,11.373,11.613,9342,0
20090525,11.747,11.747,11.517,11.613,2848,0
20090526,11.383,11.708,11.383,11.698,37841,0
20090527,11.728,11.728,11.536,11.536,1952,0
20090528,11.517,11.546,11.517,11.546,17212,0
20090529,11.631,11.661,11.564,11.661,1531,0
20090601,11.661,12.285,11.613,11.997,8115,0
20090602,12.256,12.342,11.997,11.997,4397,0
20090603,12.035,12.303,12.035,12.054,2516,0
20090604,12.141,12.332,12.092,12.332,1451,0
20090605,12.399,12.438,12.38,12.38,2410,0
20090608,12.38,12.476,12.285,12.476,1716,0
20090609,12.476,13.388,12.476,13.388,4198,0
20090610,13.436,13.916,13.436,13.897,4480,0
20090612,13.071,14.204,13.071,14.204,325,0
20090615,13.446,13.724,13.244,13.724,2801,0
20090616,13.724,13.724,13.244,13.724,1134,0
20090617,14.003,14.003,13.341,13.867,949,0
20090618,13.83,13.83,13.331,13.331,1756,0
20090619,13.052,13.052,12.38,12.61,4735,0
20090622,12.908,12.908,12.476,12.86,4791,0
20090623,11.997,12.764,11.997,12.476,1526,0
20090624,12.38,12.38,11.997,12.285,7886,0
20090625,12.285,12.572,12.285,12.285,1701,0
20090626,12.563,12.563,12.38,12.543,2645,0
20090629,12.563,12.563,12.236,12.236,2496,0
20090630,12.285,14.261,12.102,13.916,28718,0
20090701,13.436,14.194,13.436,14.194,4559,0
20090702,14.194,14.194,13.542,14.098,292,0
20090703,14.108,14.108,13.436,13.782,724,0
20090706,13.436,13.906,13.254,13.906,1074,0
20090707,13.436,14.003,13.244,13.599,1321,0
20090708,13.436,13.436,13.148,13.148,1047,0
20090709,13.436,13.772,13.148,13.628,522,0
20090710,13.619,13.628,13.349,13.436,937,0
20090713,13.897,13.897,13.58,13.628,749,0
20090714,13.484,13.484,13.484,13.484,2208,0
20090715,13.436,13.436,12.957,13.436,695,0
20090716,12.966,13.81,12.966,13.81,1637,0
20090717,13.484,13.493,13.484,13.493,1436,0
20090720,13.81,13.81,13.532,13.772,369,0
20090721,13.772,14.3,13.772,14.012,26040,0
20090722,14.251,14.3,14.242,14.251,2459,0
20090723,14.261,14.261,13.916,14.251,4274,0
20090724,14.261,14.261,14.251,14.261,3667,0
20090727,14.261,14.261,13.676,14.156,4052,0
20090728,14.156,14.156,13.724,14.146,438,0
20090729,13.493,14.146,13.493,14.146,1438,0
20090730,14.146,14.146,13.561,14.137,617,0
20090731,13.916,13.916,13.676,13.676,4872,0
20090803,13.82,13.82,13.388,13.388,115,0
20090804,13.436,13.916,13.436,13.532,1275,0
20090805,13.513,13.628,13.513,13.628,2038,0
20090806,13.628,13.916,13.628,13.916,1872,0
20090807,13.686,13.916,13.686,13.916,7697,0
20090810,14.06,14.137,14.06,14.137,5737,0
20090811,13.82,14.876,13.82,14.876,4710,0
20090812,14.779,14.779,14.204,14.779,3882,0
20090813,14.77,14.77,14.434,14.434,8452,0
20090814,14.77,14.77,14.395,14.444,994,0
20090817,14.405,14.828,14.156,14.828,1351,0
20090818,14.828,14.876,14.165,14.876,1810,0
20090819,14.732,14.876,14.732,14.876,1019,0
20090820,15.26,16.123,14.972,16.123,1534,0
20090821,16.728,16.853,16.728,16.853,580,0
20090824,16.891,16.891,15.979,16.036,1475,0
20090825,16.363,17.64,16.363,17.64,1082,0
20090826,18.138,19.281,17.62,18.715,7818,0
20090827,18.715,18.81,17.476,17.63,33044,0
20090828,18.235,19.184,17.659,19.184,1756,0
20090831,19.184,19.184,18.043,18.715,6289,0
20090901,18.715,19.271,18.282,18.715,3008,0
20090902,18.331,18.331,17.275,17.515,3048,0
20090903,17.515,17.515,17.179,17.275,942,0
20090904,17.371,17.371,17.256,17.275,2709,0
20090907,16.891,16.891,16.795,16.804,2838,0
20090908,16.901,17.659,16.901,17.659,7964,0
20090909,18.138,19.003,17.659,17.659,506,0
20090910,18.715,18.715,16.824,16.891,4675,0
20090911,16.891,17.064,16.536,16.536,432,0
20090914,17.227,17.227,16.517,16.517,2050,0
20090915,16.517,17.112,16.517,17.112,835,0
20090916,17.275,17.448,17.112,17.112,1652,0
20090917,17.275,17.371,17.275,17.371,1189,0
20090918,17.275,17.275,16.795,16.987,2454,0
20090921,17.275,17.275,17.275,17.275,104,0
20090922,17.179,17.275,17.179,17.275,308,0
20090923,16.891,16.891,16.891,16.891,287,0
20090924,16.747,17.179,16.556,17.179,14283,0
20090925,16.891,16.891,16.603,16.603,46498,0
20090928,16.219,16.603,15.979,16.123,1993,0
20090929,15.835,15.835,15.788,15.835,1742,0
20090930,15.835,15.835,15.835,15.835,8909,0
20091001,15.451,15.835,15.365,15.374,9318,0
20091002,15.346,15.374,15.336,15.374,600,0
20091005,15.374,15.374,15.374,15.374,531,0
20091006,15.5,16.219,15.5,16.219,1094,0
20091007,16.315,16.747,16.315,16.411,258,0
20091008,16.603,16.603,16.411,16.411,512,0
20091009,16.795,17.074,16.795,17.025,1159,0
20091012,16.987,16.987,16.987,16.987,232,0
20091013,16.997,17.265,16.997,17.265,267,0
20091014,17.265,17.265,17.082,17.082,5700,0
20091015,17.275,17.275,17.179,17.265,77,0
20091016,17.265,17.265,17.179,17.179,4295,0
20091019,17.179,17.265,16.795,17.179,4059,0
20091020,16.795,16.795,15.644,16.699,1339,0
20091021,15.451,16.603,15.451,16.028,2327,0
20091022,16.028,16.315,16.028,16.315,284,0
20091023,15.951,15.951,15.951,15.951,7161,0
20091026,16.315,16.315,15.605,15.605,137,0
20091027,15.356,15.547,15.356,15.471,3813,0
20091028,15.163,15.595,15.163,15.5,483,0
20091029,15.212,15.5,15.212,15.48,17563,0
20091030,15.48,16.306,15.48,16.306,552,0
20091102,16.315,16.315,16.028,16.028,2170,0
20091103,15.979,15.979,15.979,15.979,20,0
20091104,15.979,16.123,15.979,16.123,582,0
20091105,16.2,16.2,15.797,15.797,1253,0
20091106,15.989,15.989,15.451,15.451,531,0
20091109,15.644,15.644,15.451,15.451,208,0
20091110,15.73,15.73,15.26,15.356,8836,0
20091112,15.451,15.5,15.336,15.336,9449,0
20091113,15.163,15.356,15.163,15.356,11547,0
20091116,15.547,15.547,15.212,15.356,1123,0
20091117,15.163,15.163,15.163,15.163,67,0
20091118,15.73,15.739,15.346,15.346,106,0
20091119,15.356,15.356,15.346,15.346,1724,0
20091120,15.346,15.346,15.163,15.163,592,0
20091123,15.356,15.356,15.356,15.356,21,0
20091124,15.163,15.356,15.067,15.356,715,0
20091125,15.356,15.356,15.356,15.356,222,0
20091126,15.356,15.356,14.876,14.876,339,0
20091127,15.346,15.346,14.492,14.492,700,0
20091130,14.684,15.356,14.684,15.356,648,0
20091201,15.356,15.356,15.346,15.346,776,0
20091202,15.346,15.346,14.405,14.684,4976,0
20091203,15.106,15.346,14.923,14.923,1125,0
20091204,14.732,14.923,14.732,14.923,37,0
20091207,14.828,14.923,14.828,14.923,402,0
20091208,14.923,14.972,14.588,14.588,4358,0
20091209,14.684,14.684,14.348,14.348,3052,0
20091210,14.348,14.395,14.3,14.3,1777,0
20091211,14.626,14.626,14.204,14.367,6529,0
20091214,14.204,14.338,14.204,14.338,5470,0
20091215,14.251,14.251,13.772,14.012,3210,0
20091216,14.194,14.204,13.782,13.782,7663,0
20091217,14.204,14.204,13.196,13.619,4235,0
20091218,13.58,14.693,13.58,14.395,10306,0
20091221,14.779,15.163,14.598,15.049,229347,0
20091222,15.26,15.346,15.058,15.144,21962,0
20091223,15.346,15.346,14.645,14.645,3000,0
20091228,14.568,14.568,14.348,14.492,1661,0
20091229,15.019,15.346,15.019,15.26,1269,0
20091230,15.356,15.739,15.163,15.356,4281,0
20091231,15.547,15.547,14.876,14.876,10254,0
20100104,15.26,15.26,14.972,15.163,16532,0
20100105,15.336,15.356,15.212,15.212,22375,0
20100106,15.221,15.356,15.116,15.212,5991,0
20100107,15.116,15.144,15,15.144,1167,0
20100108,15.212,15.356,15.212,15.26,3949,0
20100111,15.547,15.547,15.163,15.356,15901,0
20100112,15.547,15.547,14.732,15.346,6723,0
20100113,15.317,15.317,15.154,15.154,337,0
20100114,15.163,15.163,14.876,14.876,806,0
20100115,14.895,15.404,14.741,15.404,3425,0
20100118,15.26,15.577,15.26,15.356,672,0
20100119,15.547,15.595,15.307,15.595,5385,0
20100120,15.595,15.595,15.356,15.538,1376,0
20100121,15.595,15.595,15.116,15.307,2225,0
20100122,15.307,15.307,14.885,14.885,278,0
20100125,14.972,15.374,14.972,15.029,4530,0
20100126,15.029,15.029,15.029,15.029,1206,0
20100127,15.346,15.346,15.029,15.029,2628,0
20100128,15.125,15.365,14.885,15.365,5598,0
20100129,15.356,15.356,15.356,15.356,120,0
20100201,14.732,15.404,14.722,15.404,4018,0
20100202,15.356,15.356,15.356,15.356,16465,0
20100203,15.356,15.404,15.356,15.404,2512,0
20100204,15.404,15.404,14.876,14.876,3807,0
20100205,14.876,15.26,14.876,15.26,3851,0
20100208,15.26,15.26,14.885,15.163,28990,0
20100209,15.356,15.356,15.346,15.356,730,0
20100210,15.356,15.5,14.972,15.5,3273,0
20100211,15.5,15.5,14.492,15.356,1283,0
20100212,15.394,15.394,15.356,15.394,537,0
20100215,15.394,15.547,14.876,15.547,2918,0
20100216,15.644,15.739,15.644,15.739,607,0
20100217,15.739,16.315,15.547,16.315,4162,0
20100218,16.651,16.939,16.651,16.651,19281,0
20100219,16.651,16.651,16.651,16.651,1146,0
20100222,16.891,16.891,16.315,16.536,824,0
20100223,16.507,16.507,16.411,16.507,1041,0
20100224,16.747,17.227,16.219,16.795,1873,0
20100225,17.208,17.227,16.747,17.227,1602,0
20100226,16.325,17.227,16.325,17.227,128202,0
20100301,17.074,17.074,16.939,17.064,10504,0
20100302,16.123,17.131,16.123,17.064,12487,0
20100303,17.227,17.227,16.603,16.795,2367,0
20100304,16.603,17.419,16.603,17.275,2821,0
20100305,17.553,17.553,17.275,17.275,426,0
20100308,17.275,17.851,16.651,17.851,59679,0
20100309,17.476,18.235,17.467,18.235,33421,0
20100310,18.187,18.187,18.024,18.187,28253,0
20100311,18.187,18.522,18.138,18.378,41463,0
20100312,18.378,18.378,18.235,18.378,2309,0
20100315,18.378,18.378,18.235,18.235,306,0
20100316,18.503,18.503,18.503,18.503,223,0
20100317,18.656,18.839,18.571,18.571,47378,0
20100318,19.003,19.003,18.436,18.522,1878,0
20100319,18.043,18.187,18.043,18.138,1520,0
20100322,18.138,18.138,17.419,17.419,378,0
20100323,17.419,17.419,16.507,16.507,785,0
20100324,16.507,16.507,15.979,16.219,4917,0
20100325,16.459,16.459,16.123,16.45,2122,0
20100326,16.603,17.025,16.603,16.651,2427,0
20100329,16.507,18.187,16.507,17.419,23219,0
20100330,18.091,18.417,17.669,18.187,963,0
20100331,18.187,18.417,18.138,18.187,6717,0
20100401,18.235,18.417,17.947,18.417,13329,0
20100406,17.803,18.331,17.803,18.235,5352,0
20100407,17.754,18.292,16.987,18.235,6208,0
20100408,18.359,18.359,17.659,18.235,4573,0
20100409,18.235,18.235,18.235,18.235,5552,0
20100412,18.282,18.282,17.707,17.707,4090,0
20100413,17.275,17.515,16.987,17.496,540,0
20100414,17.082,17.899,17.082,17.88,6276,0
20100415,18.235,18.235,17.362,17.371,7748,0
20100416,17.082,17.082,17.082,17.082,1456,0
20100419,16.795,16.795,16.315,16.315,6952,0
20100420,16.363,16.795,16.363,16.795,10095,0
20100421,16.459,16.891,16.267,16.315,3191,0
20100422,16.229,16.747,16.229,16.411,1029,0
20100423,16.411,17.275,16.411,17.275,901,0
20100426,17.275,17.275,16.747,17.082,556,0
20100427,16.891,16.891,16.325,16.699,954,0
20100428,16.123,16.219,16.075,16.075,2404,0
20100429,17.275,17.275,15.644,15.922,1346,0
20100430,15.931,15.979,15.644,15.644,739,0
20100504,15.691,15.691,15.356,15.356,6320,0
20100505,15.441,16.028,15.441,15.644,625,0
20100506,15.644,16.028,15.644,16.028,1213,0
20100507,15.644,15.644,15.5,15.547,1943,0
20100510,16.028,16.267,15.644,15.644,2228,0
20100511,15.644,15.835,15.644,15.807,38287,0
20100512,15.788,15.788,15.644,15.644,4014,0
20100513,16.172,16.172,15.116,15.356,10370,0
20100514,15.356,15.356,14.684,14.923,2299,0
20100517,15.019,15.019,14.789,14.789,1019,0
20100518,15.24,15.25,14.779,15.24,5682,0
20100519,14.838,15.212,14.77,15.212,11567,0
20100520,15.327,15.327,14.635,14.635,2711,0
20100521,14.395,14.395,13.724,14.395,1462,0
20100524,14.108,14.108,13.743,13.743,8240,0
20100525,13.724,13.82,13.341,13.341,1491,0
20100526,14.204,14.204,13.656,13.656,1187,0
20100527,13.867,13.867,13.244,13.244,1499,0
20100528,13.628,14.194,13.628,14.012,2084,0
20100531,14.021,14.06,14.021,14.031,170,0
20100601,14.377,14.828,14.012,14.021,6107,0
20100602,14.395,14.395,14.021,14.021,1392,0
20100604,14.06,14.492,14.06,14.492,91,0
20100607,14.588,14.828,14.588,14.598,1667,0
20100608,14.607,14.607,14.607,14.607,821,0
20100609,14.876,14.876,14.415,14.415,769,0
20100610,14.156,14.482,14.012,14.482,4479,0
20100611,14.482,14.482,14.482,14.482,304,0
20100614,14.117,14.395,14.012,14.021,3009,0
20100615,14.012,14.108,14.012,14.108,354,0
20100616,14.395,14.828,14.012,14.012,4785,0
20100617,14.031,14.06,14.012,14.06,747,0
20100618,14.012,14.012,14.012,14.012,232,0
20100621,14.012,14.012,14.012,14.012,4336,0
20100622,14.012,14.012,14.012,14.012,3215,0
20100623,14.482,14.482,14.012,14.012,752,0
20100624,14.012,14.012,14.012,14.012,3107,0
20100625,14.3,14.482,13.964,14.482,106556,0
20100628,14.108,14.108,14.031,14.031,903,0
20100629,14.031,14.031,14.012,14.012,3451,0
20100630,14.012,14.012,14.012,14.012,2045,0
20100701,14.012,14.012,14.012,14.012,54,0
20100702,14.012,14.31,14.012,14.31,2922,0
20100705,14.3,14.31,14.3,14.31,595,0
20100706,14.328,15.01,14.328,14.539,56377,0
20100707,14.549,14.972,14.549,14.972,26065,0
20100708,14.972,14.972,14.779,14.876,706,0
20100709,15.451,16.363,15.451,15.835,7230,0
20100712,16.507,16.507,16.123,16.459,4728,0
20100713,16.507,16.69,16.459,16.69,11517,0
20100714,16.795,16.795,16.556,16.747,2576,0
20100715,16.747,16.891,16.747,16.891,2129,0
20100716,16.91,16.93,16.91,16.92,563,0
20100719,16.891,17.035,16.795,16.978,1041,0
20100720,16.987,16.987,16.699,16.699,968,0
20100721,16.603,16.603,16.517,16.556,1863,0
20100722,16.556,16.556,15.931,16.488,863,0
20100723,16.507,16.603,16.488,16.556,758,0
20100726,17.025,17.025,16.699,16.699,1737,0
20100727,16.891,16.93,16.891,16.92,1649,0
20100728,17.035,17.035,16.92,17.035,1839,0
20100729,17.082,17.169,16.987,17.082,3669,0
20100730,16.92,17.169,16.92,17.074,553,0
20100802,16.891,16.968,16.795,16.968,1855,0
20100803,17.082,17.082,17.074,17.074,2162,0
20100804,17.082,17.151,17.054,17.151,628,0
20100805,17.179,17.179,16.987,17.179,891,0
20100806,17.141,17.141,16.987,17.131,4600,0
20100809,17.082,17.082,16.795,16.843,1152,0
20100810,17.035,17.035,16.843,16.987,696,0
20100811,16.93,16.93,16.747,16.891,936,0
20100812,16.91,16.91,16.747,16.747,758,0
20100813,16.891,16.891,16.315,16.479,2543,0
20100816,16.479,16.479,16.315,16.315,1833,0
20100817,16.172,16.306,15.835,16.306,920,0
20100818,16.306,16.306,16.306,16.306,171,0
20100819,16.737,16.737,16.737,16.737,10,0
20100820,17.025,17.025,16.507,16.507,184,0
20100823,16.315,16.315,16.123,16.123,290,0
20100824,16.142,16.142,15.5,15.51,4906,0
20100825,15.451,15.451,15.451,15.451,365,0
20100826,15.356,15.644,15.356,15.644,4063,0
20100827,15.644,16.219,15.644,16.219,649,0
20100830,16.315,16.315,15.931,16.315,190,0
20100831,16.123,16.69,15.691,16.69,5240,0
20100901,16.593,16.593,15.884,16.574,433,0
20100902,16.584,16.584,16.123,16.507,134,0
20100903,16.584,16.584,16.315,16.411,854,0
20100906,16.593,16.593,16.556,16.556,120,0
20100907,16.507,16.507,16.028,16.028,3129,0
20100908,15.931,16.373,15.931,16.363,328,0
20100909,15.884,16.267,15.835,16.219,338,0
20100910,16.219,16.219,15.768,15.768,2090,0
20100913,15.749,15.749,15.739,15.749,3764,0
20100914,15.691,15.691,15.356,15.356,2921,0
20100915,15.163,15.356,15.154,15.163,2325,0
20100916,15.163,15.73,15.163,15.73,279,0
20100917,15.807,15.807,15.768,15.768,47,0
20100920,15.73,15.999,15.307,15.999,4002,0
20100921,16.028,16.219,15.749,16.123,3136,0
20100922,16.219,16.219,15.307,16.172,8090,0
20100923,16.018,16.018,15.307,15.902,2894,0
20100924,16.113,16.113,15.356,16.104,629,0
20100927,16.113,16.113,15.365,15.835,617,0
20100928,16.028,16.028,15.356,15.816,3216,0
20100929,15.816,15.816,15.356,15.739,1723,0
20100930,15.356,16.028,15.356,16.028,2857,0
20101001,16.219,16.219,15.356,15.922,1193,0
20101004,16.028,16.028,15.327,15.634,4882,0
20101005,15.691,15.691,15.356,15.691,680,0
20101006,15.691,16.411,15.356,16.075,6328,0
20101007,16.267,16.267,16.2,16.2,9,0
20101008,16.123,16.315,16.028,16.315,857,0
20101011,16.469,16.469,15.51,16.267,446,0
20101012,16.315,16.315,15.356,15.701,1946,0
20101013,15.413,15.835,15.413,15.739,659,0
20101014,15.874,15.874,15.365,15.72,3206,0
20101015,15.701,15.701,15.701,15.701,1,0
20101018,15.72,15.72,15.356,15.644,4733,0
20101019,15.644,15.644,15.356,15.644,3590,0
20101020,15.644,15.644,15.356,15.356,43495,0
20101021,15.356,15.644,15.212,15.585,5599,0
20101022,15.585,15.585,15.356,15.567,848,0
20101025,15.585,15.585,15.163,15.163,1842,0
20101026,15.356,15.356,15.163,15.346,1080,0
20101027,15.356,15.374,15.173,15.365,3324,0
20101028,15.49,15.49,15.269,15.49,575,0
20101029,15.49,15.49,15.173,15.49,1374,0
20101102,15.547,15.778,15.51,15.595,3701,0
20101103,15.835,16.315,15.835,16.306,6956,0
20101104,16.479,16.651,16.325,16.651,3506,0
20101105,16.699,16.699,16.315,16.459,1230,0
20101108,16.459,16.593,15.931,15.931,3382,0
20101109,16.373,17.179,16.373,16.92,27880,0
20101110,18.043,18.388,17.707,17.851,64902,0
20101112,17.754,17.841,17.323,17.563,6379,0
20101115,17.553,17.553,17.505,17.543,1365,0
20101116,17.543,17.543,17.275,17.371,10363,0
20101117,17.198,17.285,17.179,17.236,1285,0
20101118,17.179,17.467,16.997,17.294,2225,0
20101119,17.323,17.332,17.179,17.179,3043,0
20101122,17.246,17.371,17.082,17.102,884,0
20101123,17.102,17.102,16.363,16.834,3208,0
20101124,17.275,17.476,17.275,17.342,10854,0
20101125,17.754,17.754,17.275,17.275,8394,0
20101126,17.362,17.371,17.198,17.371,8681,0
20101129,17.563,17.726,17.323,17.323,976,0
20101130,17.323,17.323,16.853,17.275,2465,0
20101201,17.323,17.323,16.507,17.025,315455,0
20101202,17.256,17.371,17.025,17.151,2084,0
20101203,17.179,17.275,17.141,17.275,917,0
20101206,17.275,17.419,17.141,17.179,2349,0
20101207,17.371,17.371,17.198,17.198,1170,0
20101208,17.275,17.275,17.035,17.035,371,0
20101209,17.169,17.169,16.968,17.025,328,0
20101210,16.968,16.987,16.603,16.737,5869,0
20101213,16.785,16.795,16.757,16.757,406,0
20101214,16.891,17.275,16.699,17.275,1549,0
20101215,17.467,17.467,16.948,16.948,6999,0
20101216,16.948,17.179,16.891,17.179,1180,0
20101217,17.179,17.179,16.891,16.939,1240,0
20101220,16.987,17.064,16.824,17.064,901,0
20101221,17.082,17.082,16.891,16.948,4321,0
20101222,17.054,17.054,16.785,17.025,2743,0
20101223,17.035,17.035,16.776,16.814,764,0
20101227,17.035,17.035,16.708,16.853,178,0
20101228,16.699,17.035,16.699,17.035,1596,0
20101229,17.035,17.035,16.843,17.025,1757,0
20101230,17.035,17.467,17.035,17.467,12115,0
20101231,17.457,17.754,17.409,17.726,18468,0
20110103,17.746,17.746,17.082,17.563,1492,0
20110104,17.553,17.553,17.275,17.467,673,0
20110105,17.409,17.563,17.131,17.563,1288,0
20110107,17.448,17.563,17.448,17.515,1155,0
20110110,17.754,17.754,17.371,17.371,1435,0
20110111,17.323,17.323,17.179,17.275,615,0
20110112,17.198,17.275,17.198,17.275,1577,0
20110113,17.275,17.371,17.179,17.179,1132,0
20110114,17.179,17.265,16.564,16.603,3190,0
20110117,16.623,16.814,16.623,16.708,7141,0
20110118,16.92,16.939,16.623,16.623,3570,0
20110119,16.699,16.699,15.835,16.315,4271,0
20110120,16.296,16.44,16.123,16.411,922,0
20110121,16.315,16.641,16.315,16.603,1273,0
20110124,16.641,16.641,16.363,16.42,756,0
20110125,16.411,16.603,16.325,16.325,2208,0
20110126,16.315,16.325,16.267,16.325,2091,0
20110127,16.181,16.584,16.181,16.411,4462,0
20110128,16.411,16.623,16.411,16.507,6863,0
20110131,15.644,16.459,15.644,16.392,2954,0
20110201,16.497,16.497,16.075,16.383,2486,0
20110202,16.402,16.641,16.239,16.392,4689,0
20110203,16.258,16.623,16.258,16.315,1038,0
20110204,16.315,16.325,16.315,16.315,1081,0
20110207,16.411,17.227,16.411,17.227,2655,0
20110208,17.275,17.275,17.141,17.141,397,0
20110209,17.141,17.141,16.507,16.891,2956,0
20110210,16.891,17.141,16.603,17.131,1914,0
20110211,16.747,17.082,16.028,17.082,4684,0
20110214,17.179,17.179,16.556,16.958,1604,0
20110215,17.159,17.159,16.757,16.757,772,0
20110216,16.699,16.699,16.556,16.556,545,0
20110217,16.411,16.556,16.373,16.556,2017,0
20110218,16.459,16.556,16.411,16.556,1149,0
20110221,16.43,16.536,16.43,16.507,2930,0
20110222,16.507,16.556,16.507,16.507,3166,0
20110223,16.507,16.891,16.507,16.757,84908,0
20110224,16.891,17.102,16.881,16.987,774,0
20110225,16.987,16.987,16.91,16.93,115,0
20110228,16.987,16.987,16.747,16.958,3464,0
20110301,16.968,16.968,16.661,16.795,849,0
20110302,16.939,17.151,16.747,17.151,13843,0
20110303,17.131,17.275,16.804,17.275,36347,0
20110304,17.227,17.496,17.227,17.496,12931,0
20110307,17.515,17.736,17.285,17.61,75574,0
20110308,17.803,17.851,17.61,17.707,10768,0
20110309,17.746,17.783,17.592,17.716,13661,0
20110310,17.687,17.687,17.323,17.429,1307,0
20110311,17.371,17.371,16.997,17.035,2263,0
20110314,16.987,17.323,16.987,17.323,1420,0
20110315,16.92,17.553,16.92,17.553,1361,0
20110316,17.678,17.678,17.582,17.582,566,0
20110317,17.707,17.707,17.582,17.582,1189,0
20110318,17.707,17.707,17.419,17.419,864,0
20110321,17.275,17.467,17.275,17.467,63,0
20110322,17.582,17.937,17.582,17.783,10009,0
20110323,17.803,17.803,17.707,17.803,619,0
20110324,17.831,17.831,17.515,17.515,2216,0
20110325,17.515,17.61,17.227,17.61,6956,0
20110328,17.61,17.669,17.563,17.563,1150,0
20110329,17.64,17.659,17.285,17.649,6086,0
20110330,17.659,17.659,17.61,17.61,1859,0
20110331,17.61,17.61,17.294,17.467,1858,0
20110401,17.61,17.61,17.313,17.543,954,0
20110404,17.572,17.572,16.795,17.275,801,0
20110405,16.795,17.074,16.795,16.987,2272,0
20110406,16.853,17.082,16.708,17.082,1490,0
20110407,17.256,17.256,17.082,17.082,146,0
20110408,16.987,17.208,16.891,17.082,859,0
20110411,16.891,17.082,16.804,16.804,4512,0
20110412,16.795,16.834,16.507,16.699,13185,0
20110413,16.718,17.025,16.507,16.603,2407,0
20110414,16.699,16.699,16.267,16.651,3882,0
20110415,16.843,16.843,16.517,16.517,104694,0
20110418,16.507,16.651,16.046,16.651,1819,0
20110419,16.603,16.747,16.603,16.747,358,0
20110420,16.737,16.747,16.603,16.641,493,0
20110421,16.785,16.785,16.363,16.363,1115,0
20110426,16.363,16.363,15.979,16.123,3062,0
20110427,16.219,16.219,16.2,16.209,634,0
20110428,16.209,16.219,15.845,15.845,713,0
20110429,15.931,15.931,15.374,15.835,824,0
20110502,16.209,16.209,15.835,15.835,682,0
20110504,15.931,15.931,15.739,15.739,1025,0
20110505,15.816,15.825,15.644,15.644,158,0
20110506,15.595,15.595,15.356,15.356,4368,0
20110509,15.356,15.356,15.125,15.356,2980,0
20110510,15.365,15.365,14.828,15.26,16905,0
20110511,15.154,15.183,15.154,15.183,109,0
20110512,15.154,15.356,15.154,15.154,583,0
20110513,15.26,15.26,14.127,14.214,6118,0
20110516,13.436,13.916,13.341,13.484,11025,0
20110517,13.513,13.58,13.244,13.321,6696,0
20110518,13.58,13.58,13.215,13.272,11694,0
20110519,13.378,13.378,12.821,12.821,5377,0
20110520,12.726,13.043,12.726,12.957,1253,0
20110523,12.947,13.052,12.947,13.004,1826,0
20110524,13.004,13.004,12.966,13.004,73,0
20110525,13.004,13.043,13.004,13.043,1297,0
20110526,13.052,13.052,12.937,12.937,1706,0
20110527,12.908,13.052,12.908,13.052,652,0
20110530,13.11,13.388,13.004,13.004,1123,0
20110531,13.052,13.052,13.004,13.004,188,0
20110601,13.1,13.1,13.004,13.043,1312,0
20110602,13.052,13.1,13.052,13.1,398,0
20110603,13.1,13.138,13.1,13.1,860,0
20110606,13.1,13.388,13.061,13.388,648,0
20110607,13.388,13.388,13.071,13.388,759,0
20110608,13.417,13.753,13.398,13.58,10263,0
20110609,13.58,13.753,13.58,13.753,416,0
20110610,13.83,13.83,13.493,13.83,5814,0
20110613,13.83,13.897,13.666,13.772,1530,0
20110614,13.82,13.82,13.638,13.724,1259,0
20110615,13.782,13.782,13.349,13.436,5243,0
20110616,13.436,13.436,13.052,13.148,2832,0
20110617,13.244,13.244,13.052,13.052,10054,0
20110620,13.052,13.052,12.764,12.813,516,0
20110621,12.813,12.813,11.757,12.429,2547,0
20110622,12.457,12.457,11.785,11.997,5268,0
20110624,11.804,11.901,10.845,11.095,5336,0
20110627,11.095,11.095,10.077,10.23,7866,0
20110628,10.547,10.749,10.173,10.317,2446,0
20110629,10.317,10.451,10.278,10.365,9007,0
20110630,10.557,11.036,10.508,10.557,2437,0
20110701,10.652,10.941,10.461,10.461,8868,0
20110704,10.557,10.557,10.029,10.163,2832,0
20110705,10.25,10.269,9.837,9.981,1915,0
20110706,9.981,9.981,9.809,9.933,2575,0
20110707,9.885,9.933,9.885,9.885,1019,0
20110708,9.885,9.885,9.789,9.866,375,0
20110711,9.866,9.866,9.693,9.693,4800,0
20110712,9.693,9.693,9.598,9.598,1771,0
20110713,9.703,9.846,9.598,9.598,9149,0
20110714,9.3284,9.568,9.3188,9.3188,74280,0
20110715,9.2132,9.2132,9.1173,9.1173,1463,0
20110718,8.9062,9.0213,8.6374,8.8294,3035,0
20110719,8.8294,8.8294,8.4167,8.503,1574,0
20110720,8.2536,8.4935,8.0808,8.4935,94062,0
20110721,8.5223,8.5223,8.1,8.503,4870,0
20110722,8.503,8.503,8.3976,8.4263,1656,0
20110725,8.3976,8.5223,8.3976,8.5223,631,0
20110726,8.4935,8.4935,8.3783,8.4839,242,0
20110727,8.4839,8.4839,8.2632,8.2727,1607,0
20110728,8.2727,8.4455,8.0712,8.4455,8326,0
20110729,8.3976,8.3976,8.1671,8.3976,1465,0
20110801,8.3976,9.1653,8.3976,8.7335,15816,0
20110802,8.7335,8.9734,8.7335,8.7335,2009,0
20110803,8.6374,8.647,8.3976,8.4935,1657,0
20110804,8.4839,8.4839,7.6777,7.6777,1500,0
20110805,7.4378,7.4378,7.1211,7.361,2947,0
20110808,6.8139,7.0539,6.766,6.8139,5499,0
20110809,6.8139,7.006,6.5357,6.8139,8231,0
20110810,6.9004,7.2459,6.9004,7.0923,1848,0
20110811,7.006,7.4858,7.006,7.1979,5347,0
20110812,7.4858,7.6777,7.4858,7.6777,17793,0
20110816,8.4455,8.4455,8.1576,8.2536,4477,0
20110817,8.2536,8.3208,8.2536,8.2536,1257,0
20110818,8.2536,8.2536,7.4378,7.4378,3991,0
20110819,7.4378,7.4378,7.006,7.3898,2945,0
20110822,7.5818,7.6777,7.5338,7.5818,32281,0
20110823,7.7546,7.7546,7.3898,7.5818,13277,0
20110824,7.6681,7.6681,7.3515,7.4666,161,0
20110825,7.4858,7.4858,7.3226,7.4858,704,0
20110826,7.4858,7.4858,7.457,7.4858,18909,0
20110829,7.5818,7.5818,7.5722,7.5818,805,0
20110830,7.6777,7.7161,7.5722,7.5818,76517,0
20110831,7.6777,7.6777,7.4762,7.4762,657,0
20110901,7.3994,7.3994,7.3515,7.3898,1365,0
20110902,7.3898,7.3898,7.0347,7.0539,1002,0
20110905,6.718,6.718,6.4781,6.5741,3019,0
20110906,6.3821,6.4685,6.3342,6.4685,1047,0
20110907,6.3437,6.5261,6.3437,6.5165,1661,0
20110908,6.4685,6.766,6.4685,6.6413,1119,0
20110909,6.6413,6.8044,6.6413,6.8044,109,0
20110912,6.6413,6.6413,6.2958,6.4301,3033,0
20110913,6.4397,6.4397,6.2574,6.3533,544,0
20110914,6.3245,6.3245,6.2574,6.2574,63,0
20110915,6.2574,6.2574,5.9502,6.1422,15778,0
20110916,6.1422,6.1422,5.7583,5.8543,5576,0
20110919,5.8927,5.8927,5.8063,5.8255,1072,0
20110920,5.8159,5.835,5.8159,5.835,9424,0
20110921,5.8543,5.8543,5.7487,5.7583,1219,0
20110922,5.6912,5.7007,5.5472,5.5472,4392,0
20110923,5.4704,5.4704,5.3744,5.4704,6614,0
20110926,5.2785,5.3744,4.8945,5.3072,33560,0
20110927,5.336,5.336,5.1057,5.2113,4690,0
20110928,5.2017,5.2592,5.1825,5.2401,7978,0
20110929,5.2304,5.2304,5.0865,5.1345,1186,0
20110930,5.1345,5.1345,5.0001,5.0865,638,0
20111003,5.0865,5.0865,4.8082,4.8082,12702,0
20111004,4.7986,4.8082,4.7122,4.7986,1787,0
20111005,4.7986,4.9329,4.7602,4.8849,33031,0
20111006,4.9426,4.9713,4.7986,4.9426,14754,0
20111007,5.0769,5.0769,4.9138,4.9426,5553,0
20111010,4.981,4.981,4.9042,4.9522,3516,0
20111011,4.9426,4.9905,4.8466,4.9233,12797,0
20111012,4.9905,5.1153,4.8945,4.9042,160186,0
20111013,4.9138,5.1153,4.9042,4.9042,80959,0
20111014,5.0577,5.4704,5.0577,5.4704,28050,0
20111017,5.5759,6.718,5.5759,5.8927,33928,0
20111018,5.8927,5.8927,5.4704,5.4991,23085,0
20111019,5.5184,5.6623,5.3553,5.4224,12181,0
20111020,5.3744,5.3744,5.192,5.3456,128112,0
20111021,5.4032,5.6144,5.1537,5.6144,17450,0
20111024,5.6528,5.8063,5.5663,5.8063,7851,0
20111025,5.8447,5.8927,5.5375,5.5375,5318,0
20111026,5.5663,5.5951,5.4416,5.4416,1867,0
20111027,5.4704,5.9983,5.4704,5.9118,149708,0
20111028,6.1998,6.219,5.8734,5.8734,20108,0
20111031,5.9502,5.9502,5.7583,5.8063,4210,0
20111102,5.6335,5.7679,5.3744,5.5663,13313,0
20111103,5.5184,5.8543,5.5184,5.8543,10561,0
20111104,5.9406,5.9406,5.7103,5.8831,3528,0
20111107,5.8927,5.9502,5.8543,5.8543,2093,0
20111108,5.8543,5.9118,5.7583,5.8543,8562,0
20111109,5.8543,5.8543,5.6623,5.6623,12848,0
20111110,5.5568,5.5663,5.5568,5.5663,2718,0
20111114,5.7103,5.7103,5.5856,5.5856,5357,0
20111115,5.384,5.384,5.1729,5.2785,26029,0
20111116,5.2401,5.2401,5.192,5.2209,8628,0
20111117,5.2401,5.2401,5.0961,5.2113,1871,0
20111118,5.3169,5.3169,4.9138,4.9138,7032,0
20111121,4.8945,4.8945,4.6738,4.6738,7816,0
20111122,4.6738,4.7314,4.3283,4.338,6971,0
20111123,4.2611,4.5107,3.8484,4.2611,45558,0
20111124,4.2611,4.2611,4.242,4.242,473,0
20111125,4.2611,4.2611,4.2036,4.2131,325,0
20111128,4.2227,4.2227,3.8484,4.0404,26108,0
20111129,3.9924,4.2131,3.9828,4.2131,103283,0
20111130,4.2131,4.3187,4.05,4.3092,8019,0
20111201,4.3187,4.4147,4.0308,4.2131,14370,0
20111202,4.194,4.194,4.0788,4.1459,3981,0
20111205,4.1556,4.1652,3.9924,4.0308,125841,0
20111206,4.0308,4.1268,4.0308,4.1172,3156,0
20111207,4.1268,4.1268,3.8869,4.0308,58210,0
20111208,4.0404,4.0404,3.8388,3.8869,6914,0
20111209,3.8965,3.954,3.6469,3.954,9475,0
20111212,3.8869,4.0021,3.8869,4.0021,225987,0
20111213,4.0308,4.1268,4.0308,4.1172,12199,0
20111214,4.1268,4.2036,4.05,4.1268,8552,0
20111215,4.1748,4.1748,4.0788,4.1268,13760,0
20111216,4.1652,4.2036,4.0692,4.1268,8304,0
20111219,4.1748,4.2036,4.1075,4.1075,8670,0
20111220,4.1748,4.1748,4.1364,4.1748,10411,0
20111221,4.2515,4.2515,4.2227,4.2324,10969,0
20111222,4.2515,4.3092,4.2227,4.2708,5621,0
20111223,4.3187,4.3187,4.2803,4.2803,594,0
20111227,4.2708,4.2708,4.1843,4.2227,5374,0
20111228,4.2227,4.2227,4.194,4.2227,4278,0
20111229,4.194,4.2227,4.1748,4.2227,4952,0
20111230,4.2227,4.2227,4.2131,4.2227,1678,0
20120102,4.2036,4.2036,4.1843,4.1843,1033,0
20120103,4.1843,4.2131,4.1268,4.2131,4342,0
20120104,4.2131,4.2131,4.098,4.098,1534,0
20120105,4.1268,4.194,4.05,4.1172,1727,0
20120109,4.194,4.194,4.1748,4.194,1541,0
20120110,4.194,4.3092,4.194,4.2995,1004,0
20120111,4.2995,4.6258,4.2899,4.6258,19590,0
20120112,4.6067,4.981,4.6067,4.8849,14820,0
20120113,4.8849,5.0289,4.7986,4.7986,6522,0
20120116,4.789,4.8849,4.789,4.8754,2090,0
20120117,4.8849,5.2976,4.8849,5.2785,10695,0
20120118,5.5663,5.6431,5.4896,5.5951,16179,0
20120119,5.5951,5.7296,5.5856,5.6047,12736,0
20120120,5.6047,5.6528,5.4704,5.4704,4747,0
20120123,5.4224,5.4224,5.0865,5.4128,5592,0
20120124,5.384,5.8927,5.3648,5.8927,18873,0
20120125,5.8927,6.2861,5.8927,6.2861,7988,0
20120126,6.5261,6.718,6.5069,6.6029,11579,0
20120127,6.6317,6.862,6.622,6.862,15565,0
20120130,6.7852,6.91,6.766,6.91,5663,0
20120131,6.9004,7.0827,6.8523,7.006,23254,0
20120201,7.006,7.006,6.718,6.9483,13412,0
20120202,6.91,7.006,6.91,7.006,117854,0
20120203,6.9388,7.0635,6.8139,7.006,16059,0
20120206,6.862,7.0827,6.862,6.9963,5035,0
20120207,6.9963,7.0539,6.7948,6.91,2645,0
20120208,6.9772,7.0444,6.9772,7.0155,5708,0
20120209,7.0155,7.0155,6.862,6.9579,9561,0
20120210,6.9772,6.9772,6.7276,6.8908,7268,0
20120213,6.8811,7.3898,6.8811,7.3898,19902,0
20120214,7.7065,7.7065,7.0444,7.2843,16059,0
20120215,7.2843,7.7546,7.2843,7.7546,17516,0
20120216,7.7449,7.7449,7.5338,7.6777,30259,0
20120217,7.7737,8.3495,7.7641,7.8697,120216,0
20120220,8.244,8.5319,8.1576,8.4359,8071,0
20120221,8.5319,8.5414,7.8889,7.8889,13998,0
20120222,7.8697,7.8697,7.4858,7.6777,15874,0
20120223,7.5913,8.0136,7.5913,7.8697,13722,0
20120224,7.8697,7.9656,7.7257,7.7257,12338,0
20120227,7.7641,7.7641,7.6009,7.6681,1273,0
20120228,7.6681,7.6681,7.5913,7.5913,816,0
20120229,7.2554,7.3034,6.8523,6.862,12555,0
20120301,6.6317,7.265,6.5933,7.1979,429375,0
20120302,7.0539,7.1979,7.0539,7.1882,11652,0
20120305,7.1498,7.265,7.0731,7.1307,40799,0
20120306,7.1307,7.1307,6.8236,6.8428,43585,0
20120307,6.9004,7.006,6.766,7.006,2199,0
20120308,7.006,7.1787,6.9867,7.1691,6425,0
20120309,7.1691,7.1691,7.0539,7.1019,3003,0
20120312,7.1019,7.1019,6.862,6.91,1192,0
20120313,6.9579,6.9579,6.862,6.91,4253,0
20120314,6.91,7.0731,6.91,6.91,4956,0
20120315,6.91,6.9579,6.91,6.91,7855,0
20120316,6.7948,6.7948,6.4301,6.4589,9921,0
20120319,6.6124,6.7085,6.5261,6.7085,47220,0
20120320,6.5741,6.7085,6.5261,6.7085,2101,0
20120321,6.5261,6.5261,6.2381,6.3342,12141,0
20120322,6.3821,6.3821,6.123,6.2093,5389,0
20120323,6.0078,6.3725,6.0078,6.3149,11150,0
20120326,6.3149,6.3149,6.1422,6.2765,9960,0
20120327,6.2861,6.4109,6.2861,6.4109,84119,0
20120328,6.4205,6.6413,6.4109,6.6413,1847,0
20120329,6.5261,6.718,6.4781,6.7085,2148,0
20120330,6.766,6.766,6.5069,6.6892,1951,0
20120402,6.6988,6.7085,6.6508,6.7085,1850,0
20120403,6.6988,6.6988,6.5261,6.5261,339,0
20120404,6.5741,6.5741,6.0462,6.1614,6381,0
20120405,6.0462,6.3245,6.0462,6.1614,22111,0
20120410,6.0462,6.1806,5.7583,5.8447,4355,0
20120411,5.6047,5.8447,5.6047,5.8447,4290,0
20120412,5.8447,5.8447,5.7583,5.8255,708,0
20120413,5.8447,5.8543,5.7583,5.7583,62670,0
20120416,5.8639,5.9406,5.8639,5.9311,323,0
20120417,5.8543,6.0558,5.8543,5.8543,2058,0
20120418,5.8639,6.2093,5.8639,6.1422,3078,0
20120419,6.219,6.3917,6.219,6.2381,33984,0
20120420,6.4013,6.4013,6.2093,6.3149,171,0
20120423,6.2765,6.2765,5.6623,5.9118,8181,0
20120424,5.384,6.2286,5.384,6.2286,8981,0
20120425,5.9599,6.0462,5.7487,5.7487,69343,0
20120426,5.7391,5.7391,5.3744,5.4032,5560,0
20120427,5.336,5.7487,5.3264,5.7487,151581,0
20120430,5.7583,5.8927,5.7583,5.8543,429,0
20120502,5.9022,5.9406,5.7967,5.8543,10556,0
20120504,5.9118,5.9311,5.8734,5.9311,14590,0
20120507,5.8543,5.8543,5.5951,5.7583,969,0
20120508,5.8255,5.8255,5.6623,5.6623,42232,0
20120509,5.6912,5.6912,5.5759,5.5856,595,0
20120510,5.5663,5.5856,5.4607,5.5663,965,0
20120511,5.4416,5.5951,5.4416,5.4704,73637,0
20120514,5.4704,5.4704,5.3648,5.4512,9669,0
20120515,5.4704,5.4704,5.4128,5.4128,118,0
20120516,5.2976,5.2976,4.8945,5.0865,8599,0
20120517,4.9426,4.9426,4.7218,4.7218,4035,0
20120518,4.7218,5.0865,4.4915,5.0769,63574,0
20120521,5.0481,5.7583,5.0481,5.7487,16619,0
20120522,5.7487,5.9118,5.7391,5.7391,9032,0
20120523,5.6719,5.6719,5.5663,5.5663,8847,0
20120524,5.5663,5.5663,5.3744,5.3744,2642,0
20120525,5.4512,5.4512,5.2785,5.2785,2501,0
20120528,5.2785,5.2785,5.0865,5.2304,992,0
20120529,5.2785,5.2785,5.1153,5.1153,2384,0
20120530,5.1729,5.1729,4.8658,4.8945,8194,0
20120531,4.7986,4.7986,4.5395,4.7986,11079,0
20120601,4.7506,5.0097,4.6546,4.7506,25765,0
20120604,4.7314,4.7314,4.3667,4.4818,24580,0
20120605,4.338,4.4339,4.194,4.2515,28830,0
20120606,4.242,4.242,4.1268,4.1268,2508,0
20120608,4.0788,4.4243,4.0788,4.4243,6978,0
20120611,4.4243,4.6642,4.4147,4.6067,3049,0
20120612,4.6067,4.8082,4.6067,4.7218,8768,0
20120613,4.7986,5.1825,4.7986,5.1825,7321,0
20120614,5.1825,5.6623,5.1825,5.6431,5018,0
20120615,5.7103,5.9502,5.6528,5.9406,14024,0
20120618,5.9502,5.9502,5.9406,5.9406,5241,0
20120619,5.9502,5.9502,5.8543,5.9311,747,0
20120620,5.9311,5.9311,5.4704,5.4704,1150,0
20120621,5.4704,5.5472,5.1345,5.1345,4471,0
20120622,5.1825,5.192,4.7986,4.8754,5998,0
20120625,4.7986,4.7986,4.6162,4.6162,3073,0
20120626,4.6162,4.8658,4.4915,4.7794,4417,0
20120627,4.9905,5.0769,4.693,4.693,5582,0
20120628,4.693,5.0001,4.4147,4.4818,26116,0
20120629,4.5107,4.5107,4.0404,4.0692,57524,0
20120702,4.0596,4.0596,3.5318,3.6469,41592,0
20120703,3.6853,3.7429,3.3206,3.3974,39889,0
20120704,3.407,3.407,3.2151,3.311,13427,0
20120705,3.3206,3.5413,3.2919,3.5413,111408,0
20120706,3.5413,3.7237,3.5413,3.6662,21348,0
20120709,3.6373,3.8293,3.6085,3.8293,8695,0
20120710,3.9444,3.9444,3.7429,3.8197,2684,0
20120711,3.81,3.81,3.551,3.599,18811,0
20120712,3.551,3.551,3.455,3.4646,29575,0
20120713,3.4934,3.5413,3.4838,3.5222,3126,0
20120716,3.5413,3.551,3.4934,3.5222,4822,0
20120717,3.5318,3.5318,3.455,3.4934,3196,0
20120718,3.455,3.6662,3.455,3.6662,6991,0
20120719,3.6757,3.6757,3.551,3.551,893,0
20120720,3.551,3.551,3.5029,3.5222,605,0
20120723,3.455,3.4742,3.359,3.4742,4320,0
20120724,3.4742,3.4742,3.3782,3.455,344,0
20120725,3.3878,3.455,3.3878,3.455,2092,0
20120726,3.455,3.4742,3.2822,3.359,5518,0
20120727,3.3878,3.4357,3.3014,3.4262,3774,0
20120730,3.4166,3.4357,3.4166,3.4357,105,0
20120731,3.4357,3.4357,3.263,3.359,4720,0
20120801,3.3398,3.3398,3.0232,3.2247,18744,0
20120802,3.2247,3.5029,3.167,3.2247,21114,0
20120803,3.3206,3.3206,3.0232,3.1479,21875,0
20120806,3.1383,3.1383,3.1383,3.1383,668,0
20120807,3.1383,3.2919,3.1383,3.2919,297,0
20120808,3.3206,3.4454,3.2919,3.3878,2436,0
20120809,3.3878,3.3878,3.3878,3.3878,1,0
20120810,3.3878,3.3878,3.3878,3.3878,1,0
20120813,3.3398,3.4357,3.3398,3.4357,1667,0
20120814,3.4262,3.4262,3.3014,3.3014,359,0
20120816,3.3014,3.3206,3.3014,3.3206,541,0
20120817,3.3302,3.3302,3.3302,3.3302,120,0
20120820,3.3878,3.3878,3.2726,3.3398,3361,0
20120821,3.3494,3.3494,3.2535,3.3494,1094,0
20120822,3.3878,3.3878,3.2919,3.359,4481,0
20120823,3.359,3.4166,3.3014,3.4166,480,0
20120824,3.4166,3.551,3.4166,3.551,5986,0
20120827,3.5797,3.5797,3.455,3.5413,8929,0
20120828,3.4357,3.4934,3.359,3.4454,7119,0
20120829,3.455,3.455,3.3014,3.455,4257,0
20120830,3.455,3.4934,3.359,3.4454,1450,0
20120831,3.359,3.4454,3.2151,3.407,12306,0
20120903,3.407,3.407,3.359,3.407,2918,0
20120904,3.4357,3.4357,3.3878,3.3878,42,0
20120905,3.1383,3.311,3.1383,3.2919,10277,0
20120906,3.2822,3.3206,3.1767,3.2919,4074,0
20120907,3.263,3.4838,3.263,3.3494,6776,0
20120910,3.359,3.5606,3.359,3.455,24220,0
20120911,3.455,3.5126,3.3398,3.4357,2228,0
20120912,3.4454,3.4838,3.4454,3.455,708,0
20120913,3.455,3.455,3.455,3.455,52,0
20120914,3.407,3.4646,3.3782,3.455,14924,0
20120917,3.4646,3.4646,3.3782,3.4454,365,0
20120918,3.455,3.455,3.359,3.3782,1512,0
20120919,3.359,3.455,3.2535,3.407,50068,0
20120920,3.407,3.407,3.167,3.1958,15483,0
20120921,3.1958,3.3014,3.1958,3.3014,8799,0
20120924,3.3494,3.4357,3.3494,3.407,7621,0
20120925,3.4166,3.4166,3.359,3.4166,2562,0
20120926,3.455,3.455,3.359,3.4454,5166,0
20120927,3.4454,3.6373,3.3686,3.6373,3893,0
20120928,3.6373,3.6373,3.5413,3.5413,8256,0
20121001,3.5413,3.5701,3.5222,3.551,90583,0
20121002,3.5126,3.6085,3.5126,3.551,3622,0
20121003,3.551,3.551,3.4357,3.5413,1992,0
20121004,3.5413,3.5413,3.3686,3.4934,4323,0
20121005,3.5126,3.5126,3.455,3.4934,1197,0
20121008,3.4934,3.5318,3.4838,3.5318,1153,0
20121009,3.5318,3.7429,3.5318,3.551,9475,0
20121010,3.599,3.599,3.4646,3.551,772,0
20121011,3.551,3.5606,3.5222,3.551,1502,0
20121012,3.5222,3.6373,3.5222,3.551,14995,0
20121015,3.551,3.551,3.5318,3.551,32346,0
20121016,3.551,3.551,3.4646,3.5413,7933,0
20121017,3.5413,3.551,3.4646,3.551,2769,0
20121018,3.551,3.551,3.5029,3.551,3329,0
20121019,3.5701,3.5701,3.5222,3.5222,26052,0
20121022,3.551,3.551,3.5222,3.551,3165,0
20121023,3.5222,3.5413,3.4454,3.5029,5803,0
20121024,3.455,3.4934,3.3782,3.4166,2706,0
20121025,3.4262,3.4262,3.4262,3.4262,63,0
20121026,3.407,3.4454,3.359,3.4454,2223,0
20121029,3.455,3.455,3.2822,3.3206,7346,0
20121030,3.2822,3.3878,3.167,3.3878,11811,0
20121031,3.3878,3.551,3.3686,3.4934,763,0
20121102,3.4934,3.551,3.3302,3.407,4955,0
20121105,3.3878,3.5222,3.3878,3.4454,1947,0
20121106,3.4838,3.4838,3.407,3.455,8862,0
20121107,3.4838,3.5126,3.4454,3.455,2275,0
20121108,3.4357,3.4838,3.4357,3.455,3793,0
20121109,3.4357,3.4838,3.4357,3.4357,3280,0
20121112,3.455,3.455,3.4454,3.4454,574,0
20121113,3.407,3.4742,3.2247,3.407,6353,0
20121114,3.2822,3.407,3.2247,3.407,4678,0
20121115,3.359,3.3974,3.0615,3.2822,10230,0
20121116,3.0903,3.2726,3.0903,3.1863,2873,0
20121119,3.2438,3.2438,3.2438,3.2438,209,0
20121120,3.2726,3.3398,3.263,3.3302,7327,0
20121121,3.3398,3.3494,3.263,3.3302,1694,0
20121122,3.359,3.359,3.311,3.3494,2460,0
20121123,3.3494,3.3494,3.2726,3.3494,495,0
20121126,3.3494,3.3494,3.263,3.3398,2433,0
20121127,3.263,3.311,3.263,3.311,1517,0
20121128,3.3014,3.3014,3.1479,3.2342,6944,0
20121129,3.2342,3.3398,3.0423,3.0423,11269,0
20121130,3.1191,3.3398,3.1191,3.311,7033,0
20121203,3.3398,3.455,3.2822,3.455,6023,0
20121204,3.4357,3.4357,3.3398,3.407,3138,0
20121205,3.407,3.4454,3.2919,3.4454,4928,0
20121206,3.4454,3.4454,3.2919,3.4262,1967,0
20121207,3.4262,3.455,3.2822,3.407,4030,0
20121210,3.4262,3.455,3.359,3.4262,987,0
20121211,3.4357,3.4357,3.3782,3.4357,740,0
20121212,3.4357,3.4357,3.2726,3.407,8617,0
20121213,3.407,3.7333,3.311,3.7333,263701,0
20121214,3.7429,4.0021,3.7429,3.8293,19273,0
20121217,3.9253,3.9253,3.6278,3.7045,16500,0
20121218,3.7525,3.7525,3.6085,3.6469,2460,0
20121219,3.6757,3.7429,3.6757,3.7333,1229,0
20121220,3.7333,3.7429,3.6469,3.7045,8970,0
20121221,3.6757,3.6757,3.6469,3.6469,531,0
20121227,3.6469,3.6757,3.455,3.6662,21128,0
20121228,3.6662,3.7429,3.5894,3.7429,48505,0
20130102,3.7333,3.7333,3.599,3.6853,785,0
20130103,3.6373,3.6949,3.551,3.6469,71358,0
20130104,3.6469,3.6469,3.5701,3.6278,943,0
20130107,3.599,3.6278,3.551,3.5894,1954,0
20130108,3.5894,3.5894,3.455,3.5413,1359,0
20130109,3.551,3.5701,3.5413,3.5606,26928,0
20130110,3.599,3.6373,3.551,3.551,8665,0
20130111,3.551,3.6085,3.551,3.599,16141,0
20130114,3.5797,3.6181,3.5797,3.599,13311,0
20130115,3.599,3.6085,3.4742,3.5318,8360,0
20130116,3.5222,3.5797,3.4934,3.5797,5064,0
20130117,3.5606,3.6085,3.5222,3.599,1583,0
20130118,3.6085,3.6085,3.5797,3.6085,169376,0
20130121,3.6278,4.3764,3.6278,4.1459,297522,0
20130122,4.0884,4.1268,4.0021,4.0404,12413,0
20130123,4.0692,4.0788,3.9637,4.0212,8291,0
20130124,3.9444,4.2611,3.9444,4.1748,79661,0
20130125,4.1748,4.1748,4.0788,4.1459,8072,0
20130128,4.1459,4.3955,4.1172,4.338,44823,0
20130129,4.3667,4.3955,4.2515,4.3667,28540,0
20130130,4.3764,4.549,4.1748,4.338,176642,0
20130131,4.3092,4.3092,4.0308,4.242,38059,0
20130201,4.1268,4.194,3.9732,4.098,15312,0
20130204,3.9828,4.1843,3.8293,4.1075,36355,0
20130205,4.1075,4.2036,4.0596,4.194,7910,0
20130206,4.2036,4.2227,4.1268,4.1556,6647,0
20130207,4.1459,4.2227,4.05,4.1075,11677,0
20130208,4.1075,4.1075,3.9637,4.1075,15627,0
20130211,4.1268,4.2899,4.1172,4.2131,11696,0
20130212,4.2131,4.3092,4.2036,4.2803,113212,0
20130213,4.2995,4.3955,4.2036,4.242,37543,0
20130214,4.242,4.2995,4.2036,4.2131,51399,0
20130215,4.242,4.2995,4.2036,4.2708,12233,0
20130218,4.2708,4.4627,4.2708,4.4627,88659,0
20130219,4.4627,4.6738,4.3859,4.6738,45898,0
20130220,4.7026,4.7026,4.4627,4.4627,14931,0
20130221,4.3667,4.5586,4.3283,4.5395,20152,0
20130222,4.5107,4.6162,4.5107,4.597,33490,0
20130225,4.5874,4.741,4.5874,4.7026,41453,0
20130226,4.7026,4.9522,4.7026,4.8754,38114,0
20130227,4.8754,4.9426,4.6642,4.7698,19756,0
20130228,4.7122,4.8466,4.7122,4.7698,11300,0
20130301,4.6834,4.7794,4.6834,4.7794,3916,0
20130304,4.789,4.789,4.597,4.6067,26758,0
20130305,4.6451,4.6451,4.4818,4.5107,8926,0
20130306,4.5202,4.6162,4.5202,4.6067,9145,0
20130307,4.597,4.6834,4.597,4.597,6580,0
20130308,4.597,4.597,4.3859,4.549,19638,0
20130311,4.693,4.693,4.5107,4.5586,11801,0
20130312,4.5683,4.6067,4.5011,4.5011,6288,0
20130313,4.5107,4.549,4.194,4.4339,46567,0
20130314,4.4051,4.4147,4.2803,4.3955,12152,0
20130315,4.3667,4.5107,4.242,4.3667,34189,0
20130318,4.4915,4.549,4.4818,4.549,3963,0
20130319,4.4818,4.549,4.4627,4.5202,15352,0
20130320,4.5202,4.549,4.5202,4.5299,9143,0
20130321,4.5107,4.5107,4.2708,4.4435,3937,0
20130322,4.2899,4.3187,4.0788,4.2995,16523,0
20130325,4.3283,4.3283,4.1459,4.2131,4501,0
20130326,4.1075,4.194,3.8293,3.9444,32239,0
20130327,4.1268,4.1268,3.8581,4.0404,8678,0
20130328,4.098,4.1652,4.0404,4.1075,12198,0
20130402,4.0116,4.0116,3.9253,3.9924,32954,0
20130403,3.9924,3.9924,3.954,3.954,23353,0
20130404,3.954,3.954,3.8388,3.8388,6539,0
20130405,3.954,4.0116,3.8388,3.8388,11927,0
20130408,3.7429,3.9349,3.7429,3.8484,2227,0
20130409,3.8772,3.9637,3.8772,3.8869,4506,0
20130410,3.8581,3.8581,3.6181,3.6373,43453,0
20130411,3.6469,3.6662,3.5222,3.6469,18757,0
20130412,3.6469,3.6469,3.5029,3.5413,17125,0
20130415,3.5126,3.5606,3.5029,3.5606,7472,0
20130417,3.5797,3.5797,3.455,3.5222,3187,0
20130418,3.4646,3.4646,3.3302,3.3302,1912,0
20130419,3.3782,3.3782,3.167,3.3686,26682,0
20130422,3.4357,3.4357,3.1286,3.311,18368,0
20130423,3.167,3.2822,3.167,3.263,2918,0
20130424,3.2822,3.3398,3.263,3.3206,5054,0
20130425,3.311,3.3398,3.2151,3.2151,3227,0
20130426,3.2151,3.3014,3.1191,3.3014,17940,0
20130429,3.3302,3.3974,3.3302,3.3686,10441,0
20130430,3.3686,3.3686,3.359,3.359,723,0
20130502,3.359,3.359,3.3494,3.3494,47,0
20130506,3.3494,3.3494,3.1286,3.263,6055,0
20130507,3.1863,3.359,3.1863,3.3398,3335,0
20130508,3.3398,3.3878,3.311,3.3878,5322,0
20130509,3.455,3.5029,3.4262,3.4262,18862,0
20130510,3.455,3.5126,3.4262,3.5126,6122,0
20130513,3.5126,3.7045,3.5029,3.6469,7729,0
20130514,3.6662,3.7813,3.6565,3.7813,2929,0
20130515,3.8484,4.2227,3.8484,4.2227,11159,0
20130516,4.2708,4.2803,4.1172,4.2803,23326,0
20130517,4.3092,4.3092,4.1843,4.2995,11494,0
20130520,4.2227,4.2324,4.1748,4.2227,119821,0
20130521,4.2227,4.2227,4.1268,4.2227,111682,0
20130522,4.1459,4.1459,4.1459,4.1459,90,0
20130523,4.1459,4.1459,3.8197,4.1172,12740,0
20130524,4.1172,4.1172,4.0021,4.1075,604,0
20130527,3.8197,4.2131,3.8197,4.2131,5674,0
20130528,4.0788,4.2131,4.0788,4.1268,812,0
20130529,4.2899,4.2899,4.05,4.1172,2843,0
20130531,4.1075,4.2227,4.1075,4.1459,791,0
20130603,4.2324,4.2324,4.1459,4.2131,136,0
20130604,4.194,4.194,4.0212,4.1556,1287,0
20130605,4.0884,4.1364,4.0884,4.1364,209,0
20130606,4.0596,4.0788,4.0596,4.0692,1388,0
20130607,4.0692,4.0692,3.906,4.0308,2050,0
20130610,3.9444,4.2611,3.9444,4.2611,13901,0
20130611,4.1075,4.2515,4.1075,4.2227,1397,0
20130612,4.2131,4.2131,3.9924,4.0788,19695,0
20130613,3.9349,4.2708,3.9349,4.2131,63826,0
20130614,4.1459,4.2803,4.1459,4.2803,4109,0
20130617,4.2803,4.2995,4.0212,4.2995,6421,0
20130618,4.3092,4.3667,4.2227,4.3667,53726,0
20130619,4.3955,4.549,4.3955,4.549,6937,0
20130620,4.6546,4.6546,4.194,4.5299,13018,0
20130621,4.1556,4.4147,4.1556,4.3475,3853,0
20130624,4.1268,4.2131,4.1268,4.2036,2314,0
20130625,4.1556,4.2131,4.1556,4.2131,1304,0
20130626,4.1748,4.1748,4.1556,4.1556,260,0
20130627,4.1843,4.2515,3.9828,4.0404,9300,0
20130628,4.0404,4.0404,3.6662,4.0116,21314,0
20130701,4.0021,4.0021,3.8388,3.8581,9817,0
20130702,3.8388,3.9828,3.8388,3.9828,2750,0
20130703,3.8869,4.098,3.8869,4.098,1147,0
20130704,4.0788,4.1268,3.9828,4.0116,31911,0
20130705,4.0116,4.0116,3.954,3.954,177,0
20130708,3.9732,3.9828,3.8677,3.9828,8984,0
20130709,4.0116,4.0308,3.9349,3.9349,6961,0
20130710,3.954,3.9828,3.8869,3.9828,1276,0
20130711,3.9828,3.9828,3.906,3.9349,3407,0
20130712,3.9637,3.9637,3.8581,3.9156,5418,0
20130715,3.8869,3.9349,3.8869,3.9349,209,0
20130716,3.9924,4.0308,3.9156,4.0116,5960,0
20130717,4.0308,4.0308,3.9349,4.0116,167,0
20130718,3.9828,3.9828,3.9828,3.9828,52,0
20130722,3.8869,3.8869,3.7813,3.7909,7849,0
20130723,3.7429,3.7621,3.7429,3.7621,201,0
20130724,3.8293,3.9444,3.81,3.8484,8165,0
20130725,3.9732,4.0308,3.9732,4.0308,4052,0
20130726,4.0308,4.0308,3.9828,4.0021,301,0
20130729,4.0212,4.0308,4.0212,4.0308,462,0
20130730,4.0308,4.0308,3.9732,3.9732,659,0
20130731,3.9349,3.9349,3.9156,3.9156,1640,0
20130801,3.9349,3.9349,3.8484,3.8581,2048,0
20130802,3.8581,3.9349,3.8581,3.9349,3002,0
20130805,3.9349,3.9349,3.8581,3.9349,4321,0
20130806,3.9444,4.0308,3.9349,4.0308,45840,0
20130807,3.9924,4.2227,3.9924,4.2227,14199,0
20130808,4.5107,4.5107,4.4147,4.4531,3772,0
20130809,4.4531,4.5107,4.1748,4.4147,10288,0
20130812,4.4531,4.4627,4.2708,4.2708,3332,0
20130813,4.2899,4.2899,4.2036,4.2227,7755,0
20130814,4.2227,4.5107,4.2227,4.5107,8109,0
20130816,4.5586,4.5586,4.4147,4.4147,428,0
20130819,4.4147,4.6067,4.4147,4.6067,18783,0
20130820,4.6642,4.6834,4.6067,4.6642,5760,0
20130821,4.6642,4.6642,4.5107,4.5395,1304,0
20130822,4.6162,4.6162,4.5395,4.597,12081,0
20130823,4.6067,4.6546,4.5586,4.6067,4005,0
20130826,4.6067,4.789,4.6067,4.7026,26153,0
20130827,4.7794,4.7794,4.7026,4.7026,1066,0
20130828,4.7026,4.7026,4.693,4.7026,2718,0
20130829,4.7026,4.7026,4.6354,4.6354,11152,0
20130830,4.7026,4.7026,4.2324,4.6451,34116,0
20130902,4.4723,4.4723,4.4627,4.4627,794,0
20130903,4.5107,4.7122,4.5107,4.7122,10618,0
20130904,4.7314,4.7506,4.6546,4.7506,2294,0
20130905,4.7506,4.7506,4.5874,4.7026,27118,0
20130906,4.6258,4.693,4.6258,4.693,2356,0
20130909,4.6546,4.693,4.6546,4.693,917,0
20130910,4.693,4.9713,4.6067,4.9522,25776,0
20130911,4.9905,5.1729,4.9905,5.1345,14416,0
20130912,5.1345,5.1345,5.1153,5.1153,1536,0
20130913,5.3744,5.9118,5.3744,5.7775,132750,0
20130916,6.2381,6.2381,5.9599,6.1998,85157,0
20130917,6.219,6.5836,6.1038,6.4973,100023,0
20130918,6.4973,6.4973,6.2861,6.3245,30302,0
20130919,6.3149,6.6124,6.219,6.4397,69076,0
20130920,6.4973,6.4973,6.4301,6.4397,5737,0
20130923,6.3629,6.3629,6.1518,6.1518,12128,0
20130924,6.1518,6.1518,5.9983,6.0366,18067,0
20130925,6.0366,6.1518,5.9502,6.1038,15640,0
20130926,6.0462,6.0462,5.9502,6.0462,21378,0
20130927,6.1134,6.1134,5.9502,5.979,3161,0
20130930,5.9502,6.0271,5.6623,6.0174,32358,0
20131001,5.9599,5.9599,5.8543,5.9215,917,0
20131002,5.9215,5.9215,5.7583,5.8543,5545,0
20131003,5.8159,5.9886,5.8063,5.9215,6047,0
20131004,5.9215,6.0846,5.8543,6.0846,4677,0
20131007,6.075,6.075,5.8255,5.9406,2290,0
20131008,5.9022,5.9502,5.8639,5.8639,2277,0
20131009,5.8447,5.8639,5.8255,5.8543,2342,0
20131010,5.8159,6.1422,5.6144,6.1422,30366,0
20131011,6.1422,6.1422,6.0174,6.123,8611,0
20131014,6.1422,6.1422,6.0558,6.123,24864,0
20131015,6.1326,6.1422,5.9983,6.0655,4007,0
20131016,6.0271,6.0655,6.0078,6.0655,5461,0
20131017,6.0655,6.0655,5.9694,5.9983,3208,0
20131018,6.0174,6.0942,5.9502,6.0942,7003,0
20131021,6.0271,6.1422,5.8831,6.1422,10577,0
20131022,6.1422,6.3917,6.0558,6.3053,48555,0
20131023,6.2861,6.3821,6.2381,6.3342,11909,0
20131024,6.4301,6.4301,6.3342,6.4301,17405,0
20131025,6.4301,6.5261,6.3629,6.4205,21456,0
20131028,6.3821,6.718,6.3725,6.6701,43688,0
20131029,6.6701,6.7564,6.622,6.718,48058,0
20131030,6.766,6.9004,6.718,6.7276,32501,0
20131031,6.6317,6.6892,6.622,6.6892,2527,0
20131104,6.7468,6.8139,6.718,6.766,10802,0
20131105,6.7276,6.7468,6.7276,6.7276,7286,0
20131106,6.718,6.766,6.5645,6.766,12950,0
20131107,6.766,6.8139,6.6796,6.8139,19724,0
20131108,6.7948,6.7948,6.5741,6.5933,4288,0
20131112,6.5836,6.6988,6.3437,6.6988,6516,0
20131113,6.6988,6.718,6.6604,6.718,5773,0
20131114,6.718,6.7276,6.6413,6.718,32865,0
20131115,6.7276,7.1882,6.718,7.0539,74224,0
20131118,7.1979,7.1979,7.0635,7.1019,14780,0
20131119,7.0251,7.5338,7.0251,7.5338,56691,0
20131120,7.5338,7.553,7.2459,7.4666,8457,0
20131121,7.4282,7.4282,7.3034,7.3803,4244,0
20131122,7.3803,7.505,7.3803,7.4762,2591,0
20131125,7.4762,7.5241,7.4762,7.4858,2672,0
20131126,7.4762,7.5434,6.9292,7.2938,8697,0
20131127,7.1019,7.2938,7.0539,7.0539,25764,0
20131128,7.0539,7.1979,6.8523,6.9772,3530,0
20131129,6.9772,6.9772,6.766,6.9676,21143,0
20131202,7.0635,7.1019,6.9579,6.9676,14143,0
20131203,6.9676,6.9676,6.8332,6.9579,5078,0
20131204,6.8332,6.862,6.7372,6.862,8039,0
20131205,6.8332,6.9579,6.8332,6.8811,15424,0
20131206,6.8139,6.8139,6.1422,6.8044,46831,0
20131209,6.8044,6.8332,6.7372,6.8332,7335,0
20131210,6.8428,6.8428,6.718,6.8332,19546,0
20131211,6.8428,6.9579,6.7372,6.91,4786,0
20131212,6.9483,6.9483,6.6796,6.862,21263,0
20131213,6.766,6.91,6.7372,6.91,6841,0
20131216,6.91,6.91,6.7468,6.766,1839,0
20131217,6.766,6.766,6.5261,6.5261,2822,0
20131218,6.6124,6.6604,6.4397,6.6508,3309,0
20131219,6.5741,6.6508,6.5741,6.6508,1562,0
20131220,6.6508,6.6508,6.2381,6.6124,37908,0
20131223,6.6988,6.6988,6.2958,6.6508,16851,0
20131227,6.6508,6.6508,6.6508,6.6508,834,0
20131230,6.622,6.718,6.5165,6.6124,1944,0
20140102,6.7468,6.7468,6.6701,6.6988,1004,0
20140103,6.6988,6.7372,6.5165,6.7276,1843,0
20140107,6.718,6.718,6.5357,6.5836,1918,0
20140108,6.5741,6.7085,6.5741,6.7085,4293,0
20140109,6.6701,6.6701,6.6508,6.6508,493,0
20140110,6.6604,7.006,6.6029,7.006,15501,0
20140113,6.718,6.9963,6.718,6.9963,2366,0
20140114,6.766,6.91,6.766,6.91,323,0
20140115,6.91,6.9483,6.8139,6.8139,1926,0
20140116,6.8236,6.862,6.8139,6.8139,2673,0
20140117,6.8236,6.8236,6.8139,6.8139,566,0
20140120,6.8139,6.8523,6.8139,6.8139,4107,0
20140121,6.8139,7.0444,6.8139,6.9483,29474,0
20140122,7.006,7.1403,7.006,7.0251,4325,0
20140123,7.1019,7.3131,7.1019,7.2747,5066,0
20140124,7.2938,7.361,7.2554,7.3419,8424,0
20140127,7.2363,7.3131,7.1595,7.3131,8226,0
20140128,7.3131,7.6777,7.2171,7.5818,24239,0
20140129,7.8697,7.8889,7.7065,7.8409,40357,0
20140130,7.8121,8.3783,7.7257,8.3111,27896,0
20140131,8.3783,8.3783,8.244,8.3015,40712,0
20140203,8.3015,8.5414,8.2536,8.4263,20775,0
20140204,8.3976,8.4071,8.3208,8.3399,7667,0
20140205,8.1576,8.1576,7.9945,8.1,12560,0
20140206,8.0904,8.0904,7.8121,7.8121,12267,0
20140207,7.9368,7.9368,7.7353,7.7737,61919,0
20140210,7.7737,7.8984,7.6969,7.6969,2174,0
20140211,7.7257,7.8889,7.505,7.6681,12792,0
20140212,7.6681,8.0617,7.6681,7.9656,17498,0
20140213,8.004,8.0328,7.9177,8.0328,2946,0
20140214,8.0136,8.0233,7.8409,7.9177,3024,0
20140217,7.8313,7.86,7.7353,7.8409,6085,0
20140218,7.7353,7.8793,7.6009,7.7737,6832,0
20140219,7.86,7.86,7.6585,7.7737,4791,0
20140220,7.7737,7.86,7.7546,7.7737,2037,0
20140221,7.6874,7.8217,7.6777,7.8217,2471,0
20140224,7.7353,7.8505,7.7353,7.7737,1775,0
20140225,7.7737,7.7737,7.6106,7.6297,5528,0
20140226,7.6681,7.6681,7.3994,7.3994,6562,0
20140227,7.3898,7.3898,7.0635,7.2266,4963,0
20140228,7.1211,7.3898,7.1211,7.3898,3584,0
20140303,7.1691,7.1691,6.6604,6.8139,15408,0
20140304,6.766,6.9963,6.766,6.9579,6788,0
20140305,7.0539,7.2938,6.9963,7.1979,44296,0
20140306,7.1498,7.1979,7.006,7.006,5296,0
20140307,7.0155,7.0155,6.91,6.91,27366,0
20140310,6.7852,6.7852,6.622,6.7085,7095,0
20140311,6.7085,6.8811,6.6317,6.8811,5205,0
20140312,6.8332,6.8332,6.6988,6.718,4482,0
20140313,6.7085,6.766,6.6796,6.7564,6568,0
20140314,6.7564,6.766,6.4589,6.4781,46224,0
20140317,6.4493,6.622,6.4493,6.622,5937,0
20140318,6.622,6.6604,6.622,6.6604,5084,0
20140319,6.6701,7.1979,6.6701,7.1979,24865,0
20140320,7.2843,7.4378,7.1019,7.3419,7270,0
20140321,7.3898,7.4378,7.3034,7.361,8177,0
20140324,7.3515,7.3515,6.9579,7.0731,3028,0
20140325,7.0155,7.1307,7.0155,7.1307,769,0
20140326,7.1307,7.1307,6.9963,7.0731,3248,0
20140327,7.0539,7.0539,6.9292,6.9292,886,0
20140328,6.91,6.9292,6.6892,6.718,7201,0
20140331,6.7085,7.0444,6.6604,7.0444,4732,0
20140401,7.0444,7.0444,6.6604,6.718,19643,0
20140402,6.718,6.718,6.5261,6.6508,5780,0
20140403,6.5452,6.718,6.5452,6.718,30439,0
20140404,6.6124,6.7756,6.5933,6.7276,24640,0
20140407,6.622,6.622,6.5645,6.5645,21974,0
20140408,6.6124,6.6124,6.5645,6.5741,1866,0
20140409,6.5836,6.6124,6.5836,6.5836,2366,0
20140410,6.6124,6.6124,6.5549,6.5741,2294,0
20140411,6.5549,6.5645,6.4781,6.5357,3962,0
20140414,6.5069,6.5069,6.4013,6.4013,1642,0
20140415,6.1998,6.2861,6.1422,6.1422,22677,0
20140416,6.1134,6.1134,5.8734,6.0655,7785,0
20140417,6.0942,6.0942,5.9983,5.9983,77486,0
20140422,5.9983,6.2381,5.9983,6.2381,3412,0
20140423,6.2381,6.3053,6.1422,6.1422,4087,0
20140424,6.123,6.1518,5.9983,5.9983,2334,0
20140425,6.0078,6.1422,6.0078,6.0558,362,0
20140428,6.0558,6.0558,6.0558,6.0558,15,0
20140429,6.1326,6.1326,6.0942,6.0942,26,0
20140430,6.1134,6.1134,6.0271,6.0271,750,0
20140502,6.0942,6.0942,6.0174,6.0174,50,0
20140505,6.0942,6.0942,5.9022,5.9022,1301,0
20140506,5.9311,5.9311,5.8255,5.9022,416,0
20140507,5.9022,5.9022,5.5568,5.7487,8751,0
20140508,5.7296,5.7296,5.6431,5.6623,73173,0
20140509,5.5951,5.5951,5.4224,5.4224,796,0
20140512,5.3264,5.3936,5.2881,5.3936,2030,0
20140513,5.3744,5.4224,5.3744,5.3744,65175,0
20140514,5.432,5.4704,5.3744,5.3744,1566,0
20140515,5.5184,5.7007,5.5184,5.624,6423,0
20140516,5.5184,5.6815,5.5088,5.5856,1875,0
20140519,5.5856,5.624,5.4991,5.4991,1752,0
20140520,5.4991,5.5279,5.3936,5.5279,4451,0
20140521,5.384,5.5279,5.3744,5.5279,4993,0
20140522,5.5088,5.5759,5.4032,5.5759,2665,0
20140523,5.5759,5.5759,5.4704,5.5184,28601,0
20140526,5.6047,5.6047,5.5184,5.5184,1927,0
20140527,5.5184,5.5759,5.5184,5.5663,642,0
20140528,5.5663,5.6815,5.5663,5.5759,10109,0
20140529,5.5568,5.624,5.5568,5.5856,365,0
20140530,5.5951,5.5951,5.5951,5.5951,52,0
20140602,5.6719,5.6719,5.6144,5.6144,365,0
20140603,5.6815,5.7103,5.5088,5.6144,9898,0
20140604,5.6144,5.6623,5.6144,5.6623,1045,0
20140605,5.6431,5.7583,5.6431,5.7103,5826,0
20140606,5.7583,5.7583,5.6623,5.7583,199,0
20140609,5.7583,5.7583,5.7103,5.7103,434,0
20140610,5.7583,5.7583,5.7199,5.7199,4371,0
20140611,5.7199,5.7391,5.6719,5.6719,3965,0
20140612,5.6912,5.6912,5.6528,5.6528,416,0
20140613,5.5472,5.5951,5.5472,5.5951,53,0
20140616,5.5375,5.5375,5.5375,5.5375,104,0
20140617,5.5375,5.5375,5.5375,5.5375,297,0
20140618,5.5375,5.5663,5.5375,5.5663,985,0
20140620,5.5279,5.5663,5.4704,5.5663,1928,0
20140623,5.4991,5.6623,5.4991,5.6623,744,0
20140624,5.7583,5.7583,5.6431,5.6431,1365,0
20140625,5.5951,5.5951,5.3936,5.5951,3001,0
20140626,6.2168,6.2168,5.8024,5.8912,1389,0
20140627,5.8912,5.8912,5.8221,5.8221,376,0
20140630,5.7728,5.7728,5.6544,5.7629,119,0
20140701,5.6544,5.6544,5.5754,5.5754,3433,0
20140703,5.5261,5.605,5.4767,5.5754,1213,0
20140704,5.5754,5.5754,5.4767,5.4767,446,0
20140707,5.4669,5.4669,5.2794,5.4077,956,0
20140708,5.4175,5.4175,5.3287,5.3781,588,0
20140710,5.2991,5.2991,5.1807,5.2695,2609,0
20140711,5.1511,5.2991,5.1314,5.2991,1893,0
20140714,5.1807,5.3781,5.1807,5.3287,3671,0
20140715,5.3287,5.3287,5.2103,5.2794,2863,0
20140716,5.2695,5.3188,5.1906,5.3188,2093,0
20140717,5.1314,5.3188,5.1314,5.3188,1196,0
20140718,5.3188,5.3583,5.1807,5.3583,1443,0
20140721,5.3583,5.3583,5.23,5.3188,1074,0
20140722,5.2399,5.2991,5.1511,5.2991,1523,0
20140723,5.2695,5.2695,5.1807,5.1807,1486,0
20140724,5.1511,5.1708,5.1511,5.1511,1071,0
20140725,5.0919,5.1116,5.0031,5.0425,3639,0
20140728,5.082,5.1314,5.082,5.082,1151,0
20140729,5.082,5.2103,4.9833,5.2103,1135,0
20140730,5.161,5.161,5.161,5.161,152,0
20140731,5.1215,5.1215,5.1215,5.1215,51,0
20140801,5.0524,5.1314,5.0129,5.0721,1096,0
20140804,5.082,5.082,5.0129,5.0623,302,0
20140805,5.1314,5.2695,4.8945,4.9044,5490,0
20140806,4.8945,4.9241,4.8156,4.8156,4506,0
20140807,4.8156,4.8156,4.638,4.638,877,0
20140808,4.638,4.638,4.5097,4.559,2028,0
20140811,4.8057,4.8057,4.6083,4.6083,26394,0
20140812,4.6873,4.6873,4.6577,4.6577,111,0
20140813,4.5985,4.6774,4.5985,4.6774,546,0
20140814,4.5195,4.6182,4.4307,4.6182,61180,0
20140818,4.6182,4.6182,4.5886,4.5886,1796,0
20140819,4.5985,4.6083,4.5985,4.6083,304,0
20140820,4.6281,4.6478,4.6281,4.6478,154,0
20140821,4.6478,4.9044,4.638,4.9044,1899,0
20140822,4.9439,5.1116,4.8748,4.8847,12790,0
20140825,4.9636,5.2103,4.9636,5.0721,18592,0
20140826,5.1017,5.457,5.1017,5.1807,21527,0
20140827,5.2202,5.457,5.2202,5.4471,7808,0
20140828,5.457,5.457,5.0228,5.1807,13605,0
20140829,5.1807,5.1807,5.0327,5.1215,4269,0
20140901,5.1215,5.1314,5.0031,5.0031,2406,0
20140902,5.0031,5.0129,4.9833,4.9932,11468,0
20140903,5.0228,5.1511,5.0228,5.0623,1895,0
20140904,5.0919,5.1708,5.0919,5.0919,1568,0
20140905,5.1314,5.1314,4.934,5.0129,5971,0
20140908,4.9537,5.1215,4.9537,5.1215,2685,0
20140909,5.1215,5.2596,5.0524,5.2596,10691,0
20140910,5.23,5.4274,5.23,5.3978,6233,0
20140911,5.3682,5.3682,4.9833,5.0425,34961,0
20140912,5.1314,5.1807,5.0623,5.0623,4045,0
20140915,5.1116,5.2004,5.1116,5.2004,1520,0
20140916,5.2004,5.3484,5.1807,5.23,12038,0
20140917,5.3188,5.3188,5.23,5.23,3499,0
20140918,5.1906,5.2399,5.1807,5.2399,3745,0
20140919,5.309,5.3386,5.2596,5.3287,5489,0
20140922,5.3188,5.3287,5.3188,5.3287,1366,0
20140923,5.2794,5.2794,4.9932,5.1511,6766,0
20140924,5.1116,5.1116,4.9833,4.9833,5119,0
20140925,4.9932,5.161,4.9833,5.161,6086,0
20140929,5.1314,5.1314,5.1116,5.1116,348,0
20140930,5.1116,5.1807,5.082,5.1807,1754,0
20141001,5.1017,5.1017,5.0623,5.0623,2256,0
20141002,5.0228,5.0327,5.0129,5.0129,3286,0
20141003,5.0129,5.1314,5.0129,5.1314,384,0
20141006,5.1314,5.1314,5.0327,5.0425,2672,0
20141007,5.0327,5.082,5.0327,5.0524,405,0
20141008,5.0524,5.0524,5.0524,5.0524,51,0
20141009,5.0425,5.0425,4.9044,4.9044,4490,0
20141010,4.934,4.934,4.5393,4.6873,3875,0
20141013,4.6873,4.7366,4.6873,4.7268,560,0
20141014,4.7366,4.7366,4.6676,4.6873,1294,0
20141015,4.7366,4.7366,4.6182,4.6281,1186,0
20141016,4.6577,4.6577,4.4406,4.4899,5496,0
20141017,4.5195,4.6478,4.4899,4.638,32266,0
20141020,4.638,4.638,4.5985,4.5985,6911,0
20141021,4.5886,4.638,4.5886,4.638,2305,0
20141022,4.5886,4.6972,4.5886,4.6972,10781,0
20141023,4.6774,4.6774,4.6182,4.6182,6341,0
20141024,4.6873,4.8353,4.6873,4.7366,11093,0
20141027,4.7366,4.8156,4.7366,4.7958,996,0
20141028,4.7564,4.9537,4.7564,4.9241,9049,0
20141029,5.0228,5.0228,4.8847,4.8847,3247,0
20141030,4.9636,4.9636,4.8452,4.9241,157,0
20141031,4.8945,4.8945,4.8452,4.8452,749,0
20141103,4.8452,4.8847,4.8254,4.8254,856,0
20141104,4.8254,4.8353,4.8057,4.8057,1660,0
20141105,4.8353,4.8353,4.8353,4.8353,1269,0
20141106,4.8057,4.934,4.786,4.786,6566,0
20141107,4.8748,4.8748,4.7366,4.7366,937,0
20141110,4.6972,4.6972,4.6774,4.6873,1647,0
20141112,4.6873,4.8254,4.6873,4.786,4526,0
20141113,4.7169,4.7268,4.7169,4.7268,101,0
20141114,4.7366,4.7366,4.7268,4.7268,490,0
20141117,4.7366,4.7366,4.6083,4.6083,3844,0
20141118,4.6182,4.6182,4.6083,4.6083,203,0
20141119,4.638,4.638,4.5294,4.5294,2397,0
20141120,4.5294,4.5294,4.3419,4.3419,3720,0
20141121,4.4406,4.4406,4.2235,4.2235,7321,0
20141124,4.2235,4.2334,4.0952,4.115,11327,0
20141125,4.184,4.184,3.9472,3.9472,4500,0
20141126,3.9571,4.0952,3.9571,4.0656,5257,0
20141127,4.0656,4.0952,4.0459,4.0952,778,0
20141128,4.0853,4.1446,4.0459,4.0952,3620,0
20141201,4.0656,4.1347,4.0459,4.1347,984,0
20141202,4.1248,4.2235,4.1248,4.1544,2633,0
20141203,4.2926,4.4209,4.2827,4.4209,10698,0
20141204,4.5491,4.5886,4.4801,4.5393,7546,0
20141205,4.5393,4.6577,4.3419,4.4505,6423,0
20141208,4.3419,4.3419,4.0459,4.332,28452,0
20141209,4.2531,4.2728,4.2432,4.263,9143,0
20141210,4.1939,4.1939,3.9965,4.184,20830,0
20141211,4.0459,4.1446,4.0459,4.1446,12064,0
20141212,4.0557,4.1446,4.036,4.1446,12236,0
20141215,4.184,4.184,4.184,4.184,608,0
20141216,4.0952,4.0952,3.9965,3.9965,2722,0
20141217,3.9965,3.9965,3.9472,3.9472,15134,0
20141218,3.9472,4.0261,3.9472,3.9472,14218,0
20141219,4.0261,4.0261,3.9669,3.9669,304,0
20141222,4.0064,4.0064,3.8189,3.9077,12102,0
20141223,3.9077,3.9077,3.6413,3.8485,26843,0
20141229,3.809,3.9373,3.809,3.888,3783,0
20141230,3.9472,3.9669,3.9176,3.9669,1830,0
20150102,3.9176,3.9275,3.9176,3.9176,1155,0
20150105,3.9077,3.9077,3.888,3.888,1420,0
20150107,3.888,3.9472,3.888,3.9472,491,0
20150108,3.9472,4.0459,3.9472,4.0459,684,0
20150109,4.0459,4.3123,4.0459,4.1051,8586,0
20150112,4.115,4.3913,4.115,4.3913,10518,0
20150113,4.4307,4.4307,4.3222,4.3222,1524,0
20150114,4.3024,4.3024,4.2926,4.2926,2088,0
20150115,4.2531,4.3419,4.2136,4.3419,355,0
20150116,4.2531,4.4406,4.2334,4.4406,4307,0
20150119,4.4899,4.4899,4.3419,4.3419,4151,0
20150120,4.4011,4.4011,4.2926,4.2926,534,0
20150121,4.2728,4.2728,4.2728,4.2728,16,0
20150122,4.2728,4.2728,4.2728,4.2728,987,0
20150123,4.2728,4.3222,4.2432,4.2432,2331,0
20150126,4.3123,4.3123,4.3123,4.3123,91,0
20150127,4.3123,4.3222,4.3123,4.3123,263,0
20150128,4.3123,4.3123,4.1742,4.1742,2760,0
20150129,4.2235,4.2235,4.2235,4.2235,51,0
20150130,4.1939,4.2136,4.1939,4.2136,507,0
20150202,4.2136,4.2235,4.1446,4.1446,1064,0
20150203,4.1248,4.1643,4.1051,4.1643,1338,0
20150204,4.2235,4.4702,4.2235,4.3913,9235,0
20150205,4.4307,4.4307,4.3913,4.3913,7150,0
20150206,4.3913,4.4406,4.3222,4.4406,3945,0
20150209,4.4505,4.6577,4.4406,4.4406,9901,0
20150210,4.4899,4.6281,4.4406,4.6281,5363,0
20150211,4.6281,4.8057,4.5985,4.638,19219,0
20150212,4.7366,4.8353,4.6577,4.8254,5211,0
20150213,4.8353,5.1511,4.8353,5.0425,7020,0
20150216,5.0425,5.0425,4.7958,4.934,10128,0
20150217,4.9833,4.9833,4.8156,4.8156,5919,0
20150218,4.8254,4.8353,4.5886,4.7958,10390,0
20150219,4.7169,4.7366,4.7169,4.7366,321,0
20150220,4.7465,4.8254,4.6577,4.8254,6884,0
20150223,4.8254,5.0129,4.8254,5.0129,3079,0
20150224,5.0228,5.1807,4.9439,4.9833,11491,0
20150225,5.0919,5.0919,4.9636,5.0031,17398,0
20150226,5.0524,5.3978,5.0327,5.3879,19110,0
20150227,5.4175,5.753,5.4175,5.5951,9558,0
20150302,5.457,5.5951,5.4274,5.5162,5409,0
20150303,5.4767,5.6445,4.934,5.3287,29354,0
20150304,5.1314,5.3682,5.1017,5.2695,8850,0
20150305,5.2991,5.4965,5.2498,5.3978,10532,0
20150306,5.3978,5.4767,5.2498,5.4767,10996,0
20150309,5.4965,5.6248,5.4175,5.5261,7390,0
20150310,5.4767,5.4965,5.2892,5.4373,13025,0
20150311,5.309,5.309,5.0425,5.2794,14990,0
20150312,5.1906,5.1906,5.1116,5.1116,9341,0
20150313,5.1314,5.1511,5.0327,5.0623,9163,0
20150316,5.082,5.1807,5.082,5.161,3707,0
20150317,5.1807,5.3188,5.1314,5.2596,8645,0
20150318,5.3287,5.4175,5.2399,5.2399,12127,0
20150319,5.2103,5.2103,5.1314,5.2103,4451,0
20150320,5.1412,5.1412,4.7564,4.786,28898,0
20150323,4.9143,5.1807,4.7366,4.8353,28815,0
20150324,4.7958,4.934,4.7958,4.934,5903,0
20150325,4.934,4.934,4.7662,4.9044,4824,0
20150326,4.9044,4.934,4.7465,4.9143,6369,0
20150330,4.934,4.934,4.934,4.934,177,0
20150331,4.934,4.934,4.8353,4.934,3445,0
20150401,4.9241,4.9241,4.7662,4.9241,21611,0
20150402,4.7366,4.9241,4.7366,4.9241,22710,0
20150407,4.8847,4.9044,4.7958,4.9044,55940,0
20150408,4.786,4.8847,4.7662,4.8847,48688,0
20150409,4.8748,4.8748,4.7366,4.855,13091,0
20150410,4.9044,4.9044,4.8156,4.8156,2722,0
20150413,4.7564,4.8353,4.7564,4.8353,1881,0
20150414,4.9044,4.9044,4.8353,4.8353,203,0
20150415,4.786,4.786,4.7564,4.7564,2518,0
20150416,4.7761,4.8353,4.7761,4.8156,1441,0
20150417,4.8353,4.8945,4.7564,4.7564,5229,0
20150420,4.7564,4.786,4.7564,4.7564,5461,0
20150421,4.7662,4.7662,4.707,4.707,3962,0
20150422,4.6774,4.7564,4.6577,4.7564,2080,0
20150423,4.786,4.786,4.786,4.786,203,0
20150424,4.7465,4.7465,4.7465,4.7465,20,0
20150427,4.7465,4.786,4.7366,4.786,12013,0
20150428,4.8847,4.8847,4.8156,4.8156,2264,0
20150429,4.8156,5.082,4.8057,5.0327,14608,0
20150430,5.0031,5.0031,4.6676,4.9241,17798,0
20150504,4.9143,4.9143,4.8847,4.8847,1256,0
20150505,4.8945,4.8945,4.8353,4.8945,1535,0
20150506,4.8945,4.8945,4.6873,4.8748,4955,0
20150507,4.8748,4.8748,4.7564,4.8748,12743,0
20150508,4.855,4.8748,4.855,4.8748,405,0
20150511,4.855,4.9241,4.855,4.9241,2669,0
20150512,4.9241,4.9241,4.9241,4.9241,20,0
20150513,4.8353,4.8353,4.786,4.786,4917,0
20150514,4.8254,4.9241,4.786,4.9241,9260,0
20150515,4.8847,4.9044,4.8353,4.9044,2432,0
20150518,4.8057,4.9044,4.8057,4.9044,2780,0
20150519,4.934,5.1314,4.8156,5.1314,27235,0
20150520,5.1314,5.1314,4.9439,5.0721,7810,0
20150521,5.0721,5.0721,5.0129,5.0721,6139,0
20150522,5.0327,5.1314,4.9932,5.1314,2029,0
20150525,5.1215,5.1314,4.8156,4.8156,10554,0
20150526,4.8847,4.9241,4.8748,4.9241,1013,0
20150527,4.9241,5.1215,4.9241,5.1116,249203,0
20150528,5.1116,5.4077,5.1116,5.4077,22208,0
20150529,5.4175,5.5951,5.309,5.309,8304,0
20150601,5.5261,6.1182,5.4274,6.1182,28329,0
20150602,6.1182,6.1182,5.7728,5.9011,14785,0
20150603,5.9405,6.503,5.9405,6.3155,63049,0
20150605,6.2563,6.3747,6.0688,6.2662,24894,0
20150608,6.3846,6.4438,6.0787,6.0984,18625,0
20150609,6.128,6.1971,6.0688,6.0688,6726,0
20150610,5.8912,6.1379,5.8813,6.0491,10690,0
20150611,5.9997,6.0787,5.9997,6.0787,1163,0
20150612,6.1182,6.1182,6.0392,6.0392,1366,0
20150615,6.0392,6.0787,6.0195,6.0787,4488,0
20150616,6.0392,6.0688,6.0293,6.0293,3828,0
20150617,6.0195,6.1675,6.0195,6.0491,12102,0
20150618,6.0589,6.2464,6.0491,6.2464,6718,0
20150619,6.2168,6.4537,6.2168,6.3352,17672,0
20150622,6.4241,6.4241,6.2464,6.2464,8094,0
20150623,6.3451,6.3451,6.1576,6.1971,3344,0
20150624,6.1379,6.1675,6.1182,6.1182,5695,0
20150625,6.1182,6.1182,6.1182,6.1182,4082,0
20150626,6.1182,6.2168,5.9405,5.98,15581,0
20150629,5.35,5.88,5.35,5.88,2942,0
20150630,5.9,5.9,5.9,5.9,50,0
20150701,5.75,5.9,5.73,5.9,3075,0
20150702,5.95,5.95,5.88,5.88,838,0
20150703,5.75,5.93,5.75,5.93,1886,0
20150706,5.93,5.93,5.66,5.88,3212,0
20150707,5.88,5.92,5.7,5.92,912,0
20150708,5.91,5.91,5.91,5.91,20,0
20150709,5.88,5.88,5.87,5.87,162,0
20150710,5.82,5.87,5.8,5.82,1231,0
20150713,5.82,5.88,5.82,5.88,535,0
20150714,5.84,5.97,5.84,5.95,695,0
20150715,5.97,5.97,5.8,5.94,3081,0
20150716,5.95,5.95,5.79,5.85,2886,0
20150717,5.75,5.8,5.73,5.75,6026,0
20150720,5.6,5.7,5.37,5.7,13155,0
20150721,5.62,5.75,5.62,5.75,584,0
20150722,5.76,5.76,5.5,5.7,2080,0
20150723,5.7,5.74,5.65,5.7,2297,0
20150724,5.74,5.8,5.71,5.71,3393,0
20150727,5.71,5.71,5.62,5.71,4698,0
20150728,5.78,5.78,5.71,5.71,650,0
20150729,5.72,5.89,5.72,5.89,2315,0
20150730,5.88,5.95,5.8,5.95,1125,0
20150731,5.95,5.95,5.88,5.9,500,0
20150803,5.9,5.9,5.9,5.9,200,0
20150804,5.88,5.99,5.86,5.99,2385,0
20150805,5.99,6.46,5.83,6,14872,0
20150806,5.94,5.99,5.88,5.99,10300,0
20150807,6,6,5.8,5.93,14805,0
20150810,5.93,5.93,5.76,5.93,6637,0
20150811,5.8,5.93,5.8,5.93,1450,0
20150812,5.88,5.96,5.81,5.96,3101,0
20150813,6,6,5.8,5.9,5027,0
20150814,5.8,5.81,5.72,5.72,4072,0
20150817,5.72,5.9,5.72,5.9,177,0
20150818,5.68,5.98,5.68,5.71,1975,0
20150819,5.72,5.72,5.72,5.72,64,0
20150820,5.72,5.94,5.72,5.94,8462,0
20150821,5.92,5.92,5.92,5.92,15,0
20150824,5.77,5.77,5.38,5.5,17279,0
20150825,5.5,5.65,5.4,5.5,5315,0
20150826,5.22,5.29,5.07,5.29,11923,0
20150827,5.17,5.34,5.1,5.29,3590,0
20150828,5.28,5.28,5.28,5.28,10,0
20150831,5.22,5.22,5.17,5.17,350,0
20150901,5.1,5.14,4.99,5.14,10082,0
20150902,5.13,5.14,5,5.14,3061,0
20150903,5.14,5.25,5.07,5.25,3416,0
20150904,5.24,5.3,5.2,5.28,1666,0
20150907,5.29,5.29,5.15,5.17,2182,0
20150908,5.15,5.2,5.08,5.2,157665,0
20150909,5.16,5.29,5.16,5.2,2853,0
20150910,5.26,5.35,5.26,5.3,5419,0
20150911,5.35,5.35,5.3,5.3,2250,0
20150914,5.35,5.35,5.3,5.3,13109,0
20150915,5.35,5.42,5.26,5.34,1006,0
20150916,5.42,5.42,5.4,5.4,2305,0
20150917,5.38,5.39,5.38,5.39,450,0
20150918,5.42,5.42,5.36,5.36,1058,0
